17, INSAT-3D Sounder  SWIR-5
Number of data points:
42
Wavenumber (cm-1)   Filter response
     2446.184000       0.000000
     2448.579800       0.001000
     2450.980400       0.010000
     2453.385700       0.030000
     2455.795700       0.050000
     2458.210400       0.070000
     2460.629900       0.100000
     2463.054200       0.145900
     2465.483200       0.213400
     2467.917100       0.312300
     2470.355700       0.411400
     2472.799200       0.520400
     2475.247500       0.623500
     2477.700700       0.727600
     2480.158700       0.821900
     2482.621600       0.884200
     2485.089500       0.929400
     2487.562200       0.966800
     2490.039800       0.974500
     2492.522400       0.984800
     2495.010000       0.990900
     2497.502500       1.000000
     2500.000000       0.982800
     2502.502500       0.991800
     2505.010000       0.948600
     2507.522600       0.897800
     2510.040200       0.825800
     2512.562800       0.714700
     2515.090500       0.623800
     2517.623400       0.522700
     2520.161300       0.403100
     2522.704300       0.308800
     2525.252500       0.225300
     2527.805900       0.139500
     2530.364400       0.100900
     2532.928100       0.070000
     2535.497000       0.050000
     2538.071100       0.030000
     2540.650400       0.020000
     2543.235000       0.010000
     2545.824800       0.001000
     2548.420000       0.000000
