   7  ,noaa_07_hirs_07.flt
Number of data points:
59
Wavenumber (cm-1)   Filter response
      720.000000       0.000000
      720.260000       0.000000
      723.980000       0.004467
      727.650000       0.009258
      730.870000       0.013241
      732.250000       0.023264
      733.290000       0.034769
      734.500000       0.056432
      735.480000       0.086308
      736.380000       0.127910
      737.040000       0.170310
      738.140000       0.283590
      738.990000       0.413110
      739.560000       0.488700
      739.860000       0.560040
      740.440000       0.656960
      741.050000       0.743340
      741.510000       0.805780
      741.590000       0.838960
      742.070000       0.874590
      742.680000       0.913400
      743.120000       0.927250
      743.770000       0.933490
      744.110000       0.926270
      744.790000       0.919110
      745.390000       0.913630
      746.010000       0.904230
      746.570000       0.900460
      747.760000       0.911190
      748.960000       0.933960
      750.490000       0.967690
      751.650000       0.987560
      752.400000       0.999580
      753.030000       1.000000
      753.710000       0.991200
      753.890000       0.985990
      754.130000       0.982920
      754.340000       0.974200
      754.980000       0.951750
      755.760000       0.906470
      756.460000       0.850160
      757.150000       0.787310
      757.820000       0.700600
      758.400000       0.614150
      758.930000       0.545990
      759.870000       0.412220
      760.460000       0.341830
      761.150000       0.270740
      762.100000       0.190640
      762.980000       0.132860
      764.130000       0.086756
      764.820000       0.067528
      765.820000       0.048851
      767.000000       0.031833
      768.640000       0.018647
      772.590000       0.010791
      777.860000       0.006872
      781.020000       0.000976
      782.010000       0.000000
