3, channel 3 NIMBUS 3   10-11 micron channel
Number of data points:
31
Wavenumber (cm-1)   Filter response
      826.446300       0.000000
      833.333300       0.018000
      840.336100       0.030000
      847.457600       0.035000
      854.700900       0.052000
      862.069000       0.088000
      869.565200       0.119000
      877.193000       0.224000
      884.955800       0.357000
      892.857100       0.515000
      900.900900       0.696000
      909.090900       0.839000
      917.431200       0.958000
      925.925900       0.991000
      934.579400       0.998000
      943.396200       1.000000
      952.381000       0.967000
      961.538500       0.887000
      970.873800       0.803000
      980.392200       0.679000
      990.099000       0.539000
     1000.000000       0.372000
     1010.101000       0.240000
     1020.408200       0.129000
     1030.927800       0.090000
     1041.666700       0.055000
     1052.631600       0.037000
     1063.829800       0.020000
     1075.268800       0.020000
     1086.956500       0.010000
     1098.901100       0.000000
