  15  ,noaa_08_hirs_15.flt
Number of data points:
57
Wavenumber (cm-1)   Filter response
     2198.000000       0.000000
     2206.200000       0.006285
     2214.400000       0.010118
     2217.600000       0.012485
     2218.700000       0.022822
     2220.000000       0.034618
     2221.000000       0.048076
     2221.900000       0.065136
     2222.700000       0.084413
     2223.100000       0.103620
     2223.800000       0.145060
     2224.600000       0.183450
     2225.100000       0.206500
     2225.400000       0.282850
     2226.000000       0.341370
     2226.700000       0.407750
     2227.400000       0.493410
     2228.300000       0.638890
     2229.000000       0.723960
     2229.500000       0.780280
     2230.200000       0.831530
     2230.600000       0.868800
     2231.100000       0.895460
     2231.700000       0.922670
     2232.300000       0.945930
     2233.000000       0.960050
     2233.800000       0.968920
     2235.700000       0.982100
     2237.000000       0.992370
     2238.000000       1.000000
     2239.100000       0.997750
     2240.600000       0.989880
     2242.000000       0.980230
     2243.300000       0.959980
     2244.200000       0.940810
     2244.900000       0.923030
     2245.400000       0.899280
     2245.900000       0.874250
     2246.600000       0.837910
     2247.100000       0.781760
     2247.700000       0.729850
     2248.300000       0.616400
     2249.200000       0.492250
     2250.200000       0.368930
     2251.000000       0.279490
     2251.700000       0.227660
     2252.500000       0.175860
     2252.900000       0.140020
     2253.600000       0.106800
     2254.100000       0.083890
     2254.800000       0.065681
     2255.400000       0.052037
     2256.500000       0.038419
     2257.300000       0.029220
     2259.400000       0.013853
     2263.300000       0.008737
     2268.600000       0.000000
