   9  ,noaa_15_hirs_09.flt
Number of data points:
69
Wavenumber (cm-1)   Filter response
      997.070000       0.000000
      998.070000       0.003031
      999.070000       0.004789
     1000.100000       0.005208
     1001.100000       0.006456
     1002.100000       0.007550
     1003.100000       0.009703
     1004.100000       0.013491
     1005.100000       0.014174
     1006.100000       0.014382
     1007.100000       0.018169
     1008.100000       0.024424
     1009.100000       0.033242
     1010.100000       0.040432
     1011.100000       0.052354
     1012.100000       0.069735
     1013.100000       0.092659
     1014.100000       0.122820
     1015.100000       0.165830
     1016.100000       0.225240
     1017.100000       0.302050
     1018.100000       0.395410
     1019.100000       0.501950
     1020.100000       0.614800
     1021.100000       0.730140
     1022.100000       0.826500
     1023.100000       0.902610
     1024.100000       0.955160
     1025.100000       0.984220
     1026.100000       0.998180
     1027.100000       1.000000
     1028.100000       0.995620
     1029.100000       0.995790
     1030.100000       0.993550
     1031.100000       0.993630
     1032.100000       0.995150
     1033.100000       0.996260
     1034.100000       0.995500
     1035.100000       0.992490
     1036.100000       0.989980
     1037.100000       0.981190
     1038.100000       0.969830
     1039.100000       0.950350
     1040.100000       0.922830
     1041.100000       0.879160
     1042.100000       0.817050
     1043.100000       0.742300
     1044.100000       0.627250
     1045.100000       0.519260
     1046.100000       0.420170
     1047.100000       0.330080
     1048.100000       0.250500
     1049.100000       0.199980
     1050.100000       0.151110
     1051.100000       0.101620
     1052.100000       0.066524
     1053.100000       0.047987
     1054.100000       0.036454
     1055.100000       0.031565
     1056.100000       0.025305
     1057.100000       0.018601
     1058.100000       0.015197
     1059.100000       0.011856
     1060.100000       0.008452
     1061.100000       0.007335
     1062.100000       0.008341
     1063.100000       0.005096
     1064.100000       0.004507
     1065.100000       0.000000
