04  , Filter noaa_09_avhrr_04.flt
Number of data points:
60
Wavenumber (cm-1)   Filter response
      862.069000       0.000000
      864.447100       0.002263
      866.825200       0.004775
      869.203300       0.007782
      871.581400       0.012614
      873.959500       0.027466
      876.337600       0.063221
      878.715700       0.129611
      881.093800       0.221469
      883.471900       0.323310
      885.850000       0.419605
      888.228100       0.501731
      890.606200       0.570574
      892.984300       0.627725
      895.362400       0.674619
      897.740500       0.712158
      900.118600       0.741163
      902.496700       0.762461
      904.874800       0.778361
      907.252900       0.791895
      909.631000       0.806316
      912.009100       0.823103
      914.387200       0.840852
      916.765300       0.857565
      919.143400       0.871617
      921.521500       0.883671
      923.899600       0.895652
      926.277700       0.909555
      928.655800       0.926120
      931.033900       0.942612
      933.412000       0.955924
      935.790100       0.963023
      938.168200       0.964280
      940.546300       0.963615
      942.924400       0.964872
      945.302500       0.971380
      947.680600       0.981660
      950.058700       0.992383
      952.436800       1.000000
      954.814900       0.999704
      957.193000       0.981660
      959.571100       0.934773
      961.949200       0.847951
      964.327300       0.719117
      966.705400       0.567209
      969.083500       0.414369
      971.461600       0.282687
      973.839700       0.185172
      976.217800       0.117105
      978.595900       0.071736
      980.974000       0.042296
      983.352100       0.023389
      985.730200       0.012279
      988.108300       0.006539
      990.486400       0.003744
      992.864500       0.002041
      995.242600       0.000995
      997.620700       0.000388
      999.998800       0.000000
     1002.376900       0.000000
