  11  ,noaa_06_hirs_11.flt
Number of data points:
29
Wavenumber (cm-1)   Filter response
     1309.200000       0.000000
     1330.600000       0.017205
     1334.800000       0.037757
     1339.300000       0.071595
     1342.200000       0.138070
     1345.100000       0.259130
     1348.100000       0.412950
     1350.700000       0.607820
     1354.100000       0.890670
     1356.000000       0.969100
     1357.500000       0.996110
     1360.800000       1.000000
     1364.600000       0.984920
     1367.700000       0.986950
     1370.800000       0.984530
     1373.400000       0.961230
     1375.100000       0.919250
     1378.500000       0.789310
     1381.900000       0.614910
     1385.100000       0.515360
     1389.200000       0.437940
     1392.000000       0.368720
     1394.400000       0.277400
     1396.600000       0.190070
     1399.500000       0.109110
     1402.900000       0.060518
     1406.500000       0.028944
     1411.600000       0.012677
     1430.500000       0.000000
