  16  ,noaa_07_hirs_16.flt
Number of data points:
65
Wavenumber (cm-1)   Filter response
     2228.100000       0.000000
     2232.500000       0.003825
     2239.000000       0.007180
     2243.800000       0.007828
     2247.000000       0.010354
     2249.800000       0.022413
     2251.300000       0.036064
     2252.700000       0.056674
     2253.700000       0.079156
     2254.600000       0.106620
     2255.300000       0.134340
     2255.900000       0.169600
     2257.000000       0.240080
     2257.800000       0.316890
     2258.400000       0.397710
     2259.200000       0.492850
     2259.500000       0.546600
     2259.900000       0.599620
     2260.600000       0.671650
     2261.200000       0.755980
     2261.700000       0.806660
     2262.200000       0.873870
     2262.800000       0.915620
     2263.000000       0.935960
     2263.800000       0.964440
     2264.900000       0.994040
     2266.200000       1.000000
     2267.500000       0.998750
     2268.800000       0.986280
     2269.600000       0.976770
     2270.200000       0.963380
     2270.700000       0.956060
     2271.000000       0.949100
     2272.000000       0.932100
     2272.900000       0.923860
     2273.500000       0.920030
     2274.100000       0.921780
     2275.400000       0.938000
     2276.500000       0.959660
     2277.500000       0.982820
     2278.100000       0.988780
     2278.600000       0.981740
     2279.300000       0.959160
     2279.700000       0.930840
     2280.000000       0.899350
     2280.800000       0.832920
     2281.100000       0.767670
     2281.600000       0.680100
     2281.900000       0.595540
     2282.500000       0.520360
     2282.900000       0.452220
     2283.200000       0.405220
     2283.600000       0.338980
     2284.400000       0.261660
     2286.000000       0.145920
     2287.200000       0.092399
     2287.700000       0.074169
     2288.900000       0.047695
     2290.300000       0.035860
     2291.300000       0.024729
     2294.600000       0.013017
     2297.000000       0.011601
     2303.100000       0.005349
     2307.000000       0.000000
     2310.000000       0.000000
