   8  ,noaa_08_hirs_08.flt
Number of data points:
55
Wavenumber (cm-1)   Filter response
      860.040000       0.000000
      865.980000       0.006634
      870.980000       0.014387
      874.080000       0.041663
      874.960000       0.059483
      876.670000       0.104510
      877.730000       0.145510
      878.590000       0.197940
      879.230000       0.251480
      880.380000       0.348400
      881.030000       0.427920
      882.210000       0.508200
      883.020000       0.608960
      884.160000       0.679780
      885.040000       0.722550
      885.770000       0.746540
      887.240000       0.782630
      889.100000       0.818060
      890.220000       0.846380
      891.880000       0.904570
      893.920000       0.962460
      895.440000       0.986210
      896.370000       0.994580
      897.130000       1.000000
      898.170000       0.992500
      899.000000       0.990630
      901.920000       0.938240
      903.920000       0.899820
      904.810000       0.885020
      906.090000       0.879010
      906.830000       0.883200
      907.240000       0.894100
      907.840000       0.922280
      908.800000       0.943890
      909.760000       0.972190
      910.390000       0.982680
      911.060000       0.987230
      911.530000       0.984080
      911.960000       0.969850
      912.410000       0.938920
      912.950000       0.870950
      913.640000       0.782730
      914.610000       0.652160
      915.370000       0.526110
      915.860000       0.427560
      916.650000       0.337400
      917.430000       0.260200
      918.600000       0.167470
      920.050000       0.088194
      921.080000       0.057666
      922.330000       0.036887
      923.640000       0.029367
      924.760000       0.013833
      929.510000       0.008817
      934.810000       0.000000
