   3  ,noaa_05_hirs_03.flt
Number of data points:
42
Wavenumber (cm-1)   Filter response
      664.000000       0.000000
      667.420000       0.004817
      670.600000       0.009193
      672.800000       0.017116
      673.520000       0.025049
      675.260000       0.043665
      676.210000       0.062247
      677.150000       0.084123
      678.340000       0.133330
      679.660000       0.196030
      680.830000       0.257910
      682.150000       0.349830
      683.200000       0.430330
      684.380000       0.524670
      685.370000       0.623640
      686.280000       0.709200
      686.990000       0.784840
      687.560000       0.843760
      688.330000       0.909060
      688.870000       0.950980
      689.550000       0.978750
      690.070000       0.996080
      690.470000       1.000000
      691.070000       0.997710
      691.720000       0.988340
      692.380000       0.972570
      693.120000       0.946390
      694.310000       0.898110
      695.240000       0.842470
      696.160000       0.780000
      696.810000       0.698150
      697.540000       0.618400
      698.230000       0.508130
      699.120000       0.382350
      700.210000       0.258520
      701.250000       0.165990
      702.290000       0.108230
      703.580000       0.058381
      704.850000       0.035470
      706.200000       0.018771
      710.800000       0.010963
      715.970000       0.000000
