  19  ,noaa_10_hirs_19.flt
Number of data points:
81
Wavenumber (cm-1)   Filter response
     2499.100000       0.000000
     2518.100000       0.000000
     2532.400000       0.000000
     2544.700000       0.002358
     2554.200000       0.003468
     2561.300000       0.007690
     2568.600000       0.022933
     2574.100000       0.039251
     2578.200000       0.053328
     2581.800000       0.071295
     2585.400000       0.092164
     2588.400000       0.123450
     2591.100000       0.153590
     2594.200000       0.182990
     2595.900000       0.215390
     2598.600000       0.272140
     2601.600000       0.323440
     2603.600000       0.366050
     2605.900000       0.423670
     2607.300000       0.466870
     2609.400000       0.515180
     2610.700000       0.562670
     2612.300000       0.620180
     2614.200000       0.676450
     2617.200000       0.743360
     2619.900000       0.800990
     2621.800000       0.839920
     2623.600000       0.878940
     2625.700000       0.907180
     2628.100000       0.935180
     2631.100000       0.960040
     2634.100000       0.981320
     2637.900000       0.996240
     2642.400000       0.997540
     2647.000000       0.989290
     2650.500000       0.975340
     2655.400000       0.947610
     2661.300000       0.912490
     2666.400000       0.880360
     2670.000000       0.865960
     2674.100000       0.863180
     2678.600000       0.865130
     2682.600000       0.876980
     2685.000000       0.898390
     2688.400000       0.930660
     2691.400000       0.954620
     2693.600000       0.978550
     2695.100000       0.993370
     2697.600000       1.000000
     2699.800000       0.987630
     2700.800000       0.971240
     2702.500000       0.949000
     2703.400000       0.927410
     2703.900000       0.895040
     2705.100000       0.863350
     2706.300000       0.828490
     2707.800000       0.754020
     2709.300000       0.690270
     2710.600000       0.611290
     2711.300000       0.547990
     2713.200000       0.484260
     2715.100000       0.408370
     2716.800000       0.357010
     2718.400000       0.296970
     2720.500000       0.249850
     2721.800000       0.205880
     2723.500000       0.165430
     2726.200000       0.124150
     2728.800000       0.096936
     2732.100000       0.073776
     2735.800000       0.051030
     2740.000000       0.036899
     2744.600000       0.023427
     2748.800000       0.015213
     2752.500000       0.009896
     2757.300000       0.006440
     2766.500000       0.002148
     2774.900000       0.000357
     2785.100000       0.000000
     2793.000000       0.000000
     2801.700000       0.000000
