5, INSAT-3DR Sounder  LWIR-5
Number of data points:
44
Wavenumber (cm-1)   Filter response
      730.994200       0.000000
      731.796600       0.020000
      732.600700       0.041500
      733.406700       0.051700
      734.214400       0.070900
      735.023900       0.072600
      735.835200       0.101700
      736.648300       0.135400
      737.463100       0.192000
      738.279800       0.240900
      739.098300       0.347000
      739.918600       0.414000
      740.740700       0.534200
      741.564700       0.640900
      742.390500       0.700600
      743.218100       0.781600
      744.047600       0.875100
      744.879000       0.940300
      745.712200       0.970100
      746.547200       0.984800
      747.384200       0.986000
      748.223000       0.975400
      749.063700       0.983400
      749.906300       1.000000
      750.750800       0.978300
      751.597100       0.971100
      752.445400       0.940800
      753.295700       0.890000
      754.147800       0.836900
      755.001900       0.756300
      755.857900       0.663100
      756.715900       0.551300
      757.575800       0.491800
      758.437600       0.407700
      759.301400       0.319600
      760.167200       0.258500
      761.035000       0.204500
      761.904800       0.161000
      762.776500       0.104500
      763.650200       0.087200
      764.526000       0.076000
      765.403800       0.079000
      766.283500       0.039800
      767.165300       0.000000
