 1    ,ATSR Flight Model FPA 12um channel at 82K
Number of data points:
44
Wavenumber (cm-1)   Filter response
      763.125800       0.000000
      765.931400       0.004600
      768.757700       0.009500
      771.604900       0.019400
      774.473400       0.024600
      777.363200       0.030300
      780.274700       0.031000
      783.208000       0.035600
      786.163500       0.047900
      789.141400       0.064600
      792.142000       0.085000
      795.165400       0.110200
      798.212000       0.143400
      801.282100       0.191600
      804.375800       0.271100
      807.493500       0.366600
      810.635500       0.495400
      813.802100       0.620800
      816.993500       0.745700
      820.210000       0.851300
      823.451900       0.902400
      826.719600       0.953900
      830.013300       0.964900
      833.333300       0.975100
      836.680100       0.985200
      840.053800       0.996100
      843.454800       1.000000
      846.883500       0.995900
      850.340100       0.988100
      853.825100       0.967800
      857.338800       0.931800
      860.881500       0.868200
      864.453700       0.780800
      868.055600       0.649900
      871.687600       0.505100
      875.350100       0.346300
      879.043600       0.214200
      882.768400       0.122300
      886.524800       0.054500
      890.313400       0.035700
      894.134500       0.019700
      897.988500       0.009700
      901.875900       0.002300
      905.797100       0.000000
