 3    ,GMS-5 channel 3 SRF corrected following Breon's paper JAOT n
Number of data points:
75
Wavenumber (cm-1)   Filter response
     1350.621300       0.000000
     1353.180000       0.003000
     1355.748400       0.004000
     1358.326500       0.006000
     1361.099800       0.008000
     1363.698300       0.012000
     1366.306900       0.017000
     1368.925400       0.026000
     1371.554000       0.040000
     1374.192700       0.062000
     1376.841500       0.093000
     1379.500600       0.137000
     1382.170000       0.199000
     1384.849700       0.281000
     1387.539900       0.376000
     1390.240500       0.474000
     1392.757700       0.562000
     1395.478600       0.652000
     1398.210300       0.742000
     1400.756400       0.819000
     1403.508800       0.889000
     1406.074200       0.933000
     1408.649100       0.953000
     1411.432600       0.960000
     1414.027100       0.961000
     1416.631300       0.963000
     1419.245000       0.965000
     1422.070500       0.962000
     1424.704400       0.959000
     1427.348000       0.956000
     1430.001400       0.967000
     1432.664800       0.991000
     1435.132000       1.000000
     1437.814500       1.000000
     1440.507100       1.000000
     1443.209700       1.000000
     1445.922500       1.000000
     1448.435700       1.000000
     1451.168200       1.000000
     1453.699700       1.000000
     1456.452100       1.000000
     1459.002000       0.976000
     1461.774600       0.940000
     1464.343200       0.909000
     1466.920900       0.889000
     1469.723700       0.880000
     1472.320400       0.884000
     1474.926300       0.893000
     1477.541400       0.899000
     1480.384900       0.897000
     1483.019400       0.881000
     1485.663300       0.847000
     1488.316700       0.793000
     1490.979600       0.719000
     1493.428900       0.642000
     1496.110100       0.555000
     1498.801000       0.475000
     1501.501500       0.402000
     1504.211800       0.334000
     1506.704800       0.274000
     1509.434000       0.212000
     1512.173000       0.159000
     1514.692500       0.120000
     1517.450700       0.086000
     1519.987800       0.061000
     1522.765300       0.040000
     1525.320300       0.026000
     1527.883900       0.017000
     1530.690300       0.012000
     1533.272000       0.009000
     1535.862400       0.007000
     1538.698300       0.005000
     1541.307000       0.003000
     1543.924700       0.001000
     1546.551200       0.000000
