03  , Filter noaa_06_avhrr_03.flt
Number of data points:
55
Wavenumber (cm-1)   Filter response
     2453.988000       0.037493
     2461.652900       0.067976
     2469.317800       0.114239
     2476.982700       0.191776
     2484.647600       0.312230
     2492.312500       0.454800
     2499.977400       0.590222
     2507.642300       0.695656
     2515.307200       0.754515
     2522.972100       0.781833
     2530.637000       0.806557
     2538.301900       0.834181
     2545.966800       0.853894
     2553.631700       0.864069
     2561.296600       0.873073
     2568.961500       0.885232
     2576.626400       0.896907
     2584.291300       0.904563
     2591.956200       0.907234
     2599.621100       0.905097
     2607.286000       0.902681
     2614.950900       0.905988
     2622.615800       0.916366
     2630.280700       0.931195
     2637.945600       0.948466
     2645.610500       0.967594
     2653.275400       0.987129
     2660.940300       1.000000
     2668.605200       0.997889
     2676.270100       0.981101
     2683.935000       0.957496
     2691.599900       0.934451
     2699.264800       0.917256
     2706.929700       0.909752
     2714.594600       0.905174
     2722.259500       0.890879
     2729.924400       0.860355
     2737.589300       0.818996
     2745.254200       0.772091
     2752.919100       0.713410
     2760.584000       0.630819
     2768.248900       0.520832
     2775.913800       0.398052
     2783.578700       0.278959
     2791.243600       0.175660
     2798.908500       0.097194
     2806.573400       0.048937
     2814.238300       0.023509
     2821.903200       0.010858
     2829.568100       0.004283
     2837.233000       0.001420
     2844.897900       0.000297
     2852.562800       0.000000
     2860.227700       0.000000
     2867.892600       0.000000
