3,    channel 3 SRF extracted from INSAT-3DS_Sounder_SRFs.zip(INSAT-3DS-Sounder-SRF-Ch3.txt) (received Nov 2023)
Number of data points:
32
Wavenumber (cm-1)   Filter response
      701.262300       0.000000
      702.000700       0.032400
      702.740700       0.087100
      703.482200       0.150100
      704.225400       0.230400
      704.970000       0.343500
      705.716300       0.477700
      706.464100       0.643800
      707.213600       0.766100
      707.964600       0.833000
      708.717200       0.894600
      709.471400       0.925900
      710.227300       0.957200
      710.984700       0.966200
      711.743800       0.968000
      712.504500       0.967500
      713.266800       0.943300
      714.030700       0.951000
      714.796300       0.986200
      715.563500       1.000000
      716.332400       0.938600
      717.102900       0.869000
      717.875100       0.758900
      718.648900       0.577000
      719.424500       0.394700
      720.201700       0.249100
      720.980500       0.127700
      721.761100       0.077000
      722.543400       0.050400
      723.327300       0.022600
      724.113000       0.009500
      724.900300       0.000000
