  15  ,noaa_09_hirs_15.flt
Number of data points:
62
Wavenumber (cm-1)   Filter response
     2202.900000       0.000000
     2209.100000       0.000243
     2213.900000       0.004923
     2217.200000       0.007980
     2220.600000       0.011729
     2221.800000       0.014688
     2222.400000       0.023595
     2223.300000       0.033722
     2224.800000       0.049506
     2225.500000       0.066710
     2226.100000       0.084112
     2227.000000       0.121320
     2227.900000       0.170770
     2228.900000       0.232660
     2229.800000       0.301200
     2230.800000       0.384940
     2231.600000       0.478360
     2232.800000       0.587190
     2233.700000       0.699450
     2234.500000       0.758090
     2235.300000       0.817930
     2235.900000       0.864220
     2236.500000       0.900560
     2236.900000       0.926160
     2237.400000       0.943350
     2238.000000       0.959730
     2238.700000       0.976810
     2239.500000       0.987510
     2240.100000       0.996190
     2241.800000       0.994730
     2242.500000       0.985470
     2243.500000       0.976540
     2244.300000       0.965580
     2244.800000       0.958380
     2245.800000       0.955420
     2246.600000       0.947290
     2247.300000       0.944590
     2248.700000       0.937170
     2249.400000       0.925410
     2250.000000       0.914500
     2250.700000       0.895240
     2251.000000       0.877610
     2251.500000       0.833230
     2252.000000       0.795760
     2252.500000       0.743580
     2253.300000       0.622390
     2254.300000       0.502370
     2255.000000       0.395810
     2256.100000       0.284300
     2257.100000       0.182870
     2257.400000       0.154690
     2258.000000       0.120830
     2258.700000       0.086531
     2259.300000       0.067137
     2259.900000       0.051225
     2261.200000       0.034931
     2262.200000       0.027802
     2263.300000       0.021515
     2265.100000       0.015282
     2267.800000       0.006506
     2270.100000       0.003127
     2271.600000       0.000000
