   8  ,noaa_05_hirs_08.flt
Number of data points:
58
Wavenumber (cm-1)   Filter response
      849.910000       0.000000
      857.330000       0.000000
      862.720000       0.001300
      867.620000       0.006618
      871.280000       0.012434
      873.270000       0.018858
      874.460000       0.030056
      875.990000       0.051149
      877.140000       0.078951
      878.260000       0.128990
      879.460000       0.197450
      880.880000       0.309000
      882.720000       0.516970
      884.230000       0.730120
      884.920000       0.847510
      886.080000       0.933090
      886.600000       0.967440
      887.350000       0.992760
      888.290000       1.000000
      889.200000       0.967280
      890.190000       0.929630
      891.630000       0.860420
      893.180000       0.776140
      894.070000       0.748940
      894.850000       0.733720
      896.070000       0.729150
      896.930000       0.734580
      897.590000       0.744030
      898.490000       0.765590
      899.300000       0.792210
      899.990000       0.829180
      900.990000       0.873230
      902.110000       0.922380
      902.930000       0.947800
      903.360000       0.965480
      904.360000       0.969470
      905.460000       0.956720
      905.990000       0.929690
      907.230000       0.854980
      908.310000       0.782640
      910.080000       0.688420
      911.600000       0.603540
      912.790000       0.555240
      915.330000       0.476260
      918.360000       0.374180
      920.030000       0.319930
      923.210000       0.189010
      923.290000       0.129630
      926.630000       0.094161
      927.620000       0.075303
      928.750000       0.049536
      929.880000       0.035155
      931.850000       0.021264
      933.320000       0.012201
      935.990000       0.009843
      938.560000       0.004333
      943.260000       0.000000
      950.100000       0.000000
