05  , Filter noaa_12_avhrr_05.flt
Number of data points:
60
Wavenumber (cm-1)   Filter response
      787.401000       0.021994
      789.499100       0.005227
      791.597200       0.004820
      793.695300       0.037138
      795.793400       0.113102
      797.891500       0.223215
      799.989600       0.353237
      802.087700       0.488207
      804.185800       0.610407
      806.283900       0.701444
      808.382000       0.748027
      810.480100       0.763362
      812.578200       0.768945
      814.676300       0.783831
      816.774400       0.810010
      818.872500       0.841578
      820.970600       0.872826
      823.068700       0.901572
      825.166800       0.928264
      827.264900       0.953353
      829.363000       0.975746
      831.461100       0.992364
      833.559200       1.000000
      835.657300       0.997562
      837.755400       0.990247
      839.853500       0.984280
      841.951600       0.984986
      844.049700       0.990825
      846.147800       0.996535
      848.245900       0.996984
      850.344000       0.991402
      852.442100       0.984793
      854.540200       0.982547
      856.638300       0.987295
      858.736400       0.987039
      860.834500       0.965287
      862.932600       0.905807
      865.030700       0.804684
      867.128800       0.673725
      869.226900       0.525525
      871.325000       0.372916
      873.423100       0.230106
      875.521200       0.111832
      877.619300       0.032776
      879.717400       0.000000
      881.815500       0.000000
      883.913600       0.007734
      886.011700       0.018255
      888.109800       0.020927
      890.207900       0.018680
      892.306000       0.014848
      894.404100       0.012486
      896.502200       0.012105
      898.600300       0.012865
      900.698400       0.013911
      902.796500       0.014516
      904.894600       0.014620
      906.992700       0.014391
      909.090800       0.013996
      911.188900       0.000000
