17, INSAT-3DR Sounder  SWIR-5
Number of data points:
42
Wavenumber (cm-1)   Filter response
     2443.792800       0.000000
     2446.184000       0.008000
     2448.579800       0.015000
     2450.980400       0.025000
     2453.385700       0.041800
     2455.795700       0.055600
     2458.210400       0.086200
     2460.629900       0.131300
     2463.054200       0.194800
     2465.483200       0.273100
     2467.917100       0.352200
     2470.355700       0.443700
     2472.799200       0.529900
     2475.247500       0.617600
     2477.700700       0.696900
     2480.158700       0.781300
     2482.621600       0.854400
     2485.089500       0.913600
     2487.562200       0.957300
     2490.039800       0.992300
     2492.522400       1.000000
     2495.010000       0.998500
     2497.502500       0.983700
     2500.000000       0.939800
     2502.502500       0.882600
     2505.010000       0.811000
     2507.522600       0.727200
     2510.040200       0.638500
     2512.562800       0.550200
     2515.090500       0.467400
     2517.623400       0.384400
     2520.161300       0.295000
     2522.704300       0.221000
     2525.252500       0.156100
     2527.805900       0.104300
     2530.364400       0.069200
     2532.928100       0.050500
     2535.497000       0.036500
     2538.071100       0.025000
     2540.650400       0.015000
     2543.235000       0.008000
     2545.824800       0.000000
