16, INSAT-3DR Sounder  SWIR-4
Number of data points:
41
Wavenumber (cm-1)   Filter response
     2358.490600       0.000000
     2360.717700       0.010000
     2362.949000       0.030000
     2365.184500       0.050000
     2367.424200       0.061500
     2369.668200       0.081600
     2371.916500       0.126500
     2374.169000       0.181500
     2376.425900       0.259500
     2378.687000       0.336400
     2380.952400       0.405700
     2383.222100       0.462400
     2385.496200       0.534300
     2387.774600       0.605900
     2390.057400       0.670000
     2392.344500       0.754000
     2394.636000       0.831600
     2396.931900       0.900000
     2399.232200       0.951400
     2401.537000       0.983700
     2403.846200       1.000000
     2406.159800       0.995100
     2408.477800       0.984700
     2410.800400       0.946600
     2413.127400       0.902900
     2415.458900       0.827100
     2417.795000       0.759100
     2420.135500       0.666100
     2422.480600       0.576400
     2424.830300       0.482600
     2427.184500       0.402300
     2429.543200       0.316600
     2431.906600       0.249500
     2434.274600       0.186600
     2436.647200       0.135700
     2439.024400       0.091100
     2441.406200       0.065300
     2443.792800       0.043500
     2446.184000       0.031000
     2448.579800       0.012000
     2450.980400       0.000000
