14, INSAT-3DR Sounder  SWIR-2
Number of data points:
37
Wavenumber (cm-1)   Filter response
     2164.502200       0.000000
     2166.377800       0.010000
     2168.256700       0.025000
     2170.138900       0.045000
     2172.024300       0.064700
     2173.913000       0.084600
     2175.805000       0.113600
     2177.700300       0.168500
     2179.599000       0.229200
     2181.500900       0.317900
     2183.406100       0.401000
     2185.314700       0.495600
     2187.226600       0.587600
     2189.141900       0.675400
     2191.060500       0.757600
     2192.982500       0.832600
     2194.907800       0.908100
     2196.836600       0.965100
     2198.768700       0.993800
     2200.704200       1.000000
     2202.643200       0.966000
     2204.585500       0.910400
     2206.531300       0.830900
     2208.480600       0.745200
     2210.433200       0.654000
     2212.389400       0.566000
     2214.349000       0.474200
     2216.312100       0.387300
     2218.278600       0.298000
     2220.248700       0.223400
     2222.222200       0.153300
     2224.199300       0.108500
     2226.179900       0.076800
     2228.164000       0.056200
     2230.151700       0.035000
     2232.142900       0.015000
     2234.137600       0.000000
