  10  ,noaa_12_hirs_10.flt
Number of data points:
73
Wavenumber (cm-1)   Filter response
     1159.900000       0.000000
     1163.200000       0.000541
     1169.900000       0.000605
     1172.400000       0.004345
     1177.600000       0.012981
     1179.100000       0.015835
     1180.400000       0.025002
     1183.100000       0.055603
     1185.400000       0.102560
     1187.200000       0.165330
     1189.100000       0.281600
     1191.200000       0.451530
     1193.300000       0.646570
     1195.300000       0.810060
     1197.300000       0.930970
     1199.900000       0.990130
     1200.900000       0.998340
     1201.600000       1.000000
     1202.000000       0.997660
     1203.000000       0.990550
     1204.900000       0.966280
     1206.900000       0.941210
     1207.900000       0.928500
     1209.100000       0.916950
     1211.200000       0.900450
     1212.400000       0.890780
     1214.300000       0.879320
     1215.400000       0.873010
     1215.900000       0.871570
     1216.400000       0.867380
     1217.600000       0.856520
     1219.800000       0.836650
     1222.000000       0.813360
     1224.100000       0.794860
     1226.100000       0.778580
     1227.500000       0.770130
     1228.700000       0.764380
     1229.800000       0.759860
     1231.200000       0.758020
     1233.400000       0.756040
     1234.800000       0.752710
     1235.400000       0.750350
     1236.500000       0.743110
     1237.800000       0.732990
     1238.600000       0.715480
     1240.300000       0.672770
     1242.400000       0.621280
     1244.500000       0.573400
     1246.600000       0.535640
     1247.700000       0.521480
     1248.400000       0.515830
     1249.100000       0.514830
     1249.900000       0.519830
     1250.700000       0.529370
     1252.700000       0.571770
     1253.700000       0.584890
     1254.200000       0.586790
     1254.800000       0.581560
     1255.100000       0.577860
     1255.800000       0.550620
     1256.800000       0.472470
     1259.000000       0.272120
     1261.000000       0.123480
     1263.200000       0.045318
     1265.000000       0.022694
     1266.000000       0.018574
     1268.500000       0.013405
     1269.400000       0.010089
     1274.500000       0.006345
     1280.900000       0.003016
     1283.600000       0.000567
     1310.000000       0.000010
     1320.000000       0.000000
