  11  ,noaa_07_hirs_11.flt
Number of data points:
48
Wavenumber (cm-1)   Filter response
     1305.000000       0.000000
     1317.600000       0.003348
     1327.500000       0.019624
     1328.800000       0.038411
     1330.800000       0.042383
     1334.300000       0.075732
     1336.300000       0.105450
     1338.500000       0.162940
     1340.600000       0.232980
     1341.800000       0.331870
     1343.000000       0.412000
     1344.500000       0.500430
     1346.200000       0.600360
     1348.600000       0.764280
     1350.700000       0.844150
     1352.100000       0.905100
     1354.200000       0.949440
     1355.500000       0.971920
     1357.300000       0.980650
     1359.700000       0.993870
     1361.200000       0.996950
     1362.400000       0.999790
     1365.000000       1.000000
     1366.500000       0.993260
     1367.700000       0.979370
     1369.400000       0.952700
     1372.100000       0.881870
     1373.600000       0.825260
     1375.000000       0.765760
     1376.600000       0.692830
     1377.800000       0.637370
     1380.300000       0.538800
     1381.700000       0.477530
     1382.400000       0.449520
     1384.700000       0.369080
     1387.400000       0.292880
     1388.400000       0.241600
     1389.600000       0.199040
     1392.000000       0.137040
     1393.200000       0.104650
     1395.900000       0.065754
     1396.500000       0.052615
     1397.800000       0.041217
     1399.900000       0.031815
     1404.200000       0.010373
     1411.500000       0.006569
     1418.400000       0.000832
     1424.100000       0.000000
