2, channel 2 NIMBUS 3   6.5-7.0 micron channel
Number of data points:
21
Wavenumber (cm-1)   Filter response
     1428.571400       0.000000
     1438.848900       0.006000
     1449.275400       0.011000
     1459.854000       0.080000
     1470.588200       0.150000
     1481.481500       0.361000
     1492.537300       0.572000
     1503.759400       0.765000
     1515.151500       0.958000
     1526.717600       1.000000
     1538.461500       0.958000
     1550.387600       0.880000
     1562.500000       0.782000
     1574.803100       0.501000
     1587.301600       0.220000
     1600.000000       0.117000
     1612.903200       0.014000
     1626.016300       0.009000
     1639.344300       0.004000
     1652.892600       0.002000
     1666.666700       0.000000
