  18  ,noaa_10_hirs_18.flt
Number of data points:
83
Wavenumber (cm-1)   Filter response
     2447.400000       0.000000
     2452.700000       0.000000
     2458.700000       0.001830
     2462.800000       0.004937
     2466.100000       0.006873
     2469.600000       0.008496
     2473.000000       0.014419
     2476.200000       0.023617
     2478.600000       0.035707
     2480.700000       0.050423
     2481.900000       0.069827
     2483.400000       0.088287
     2484.500000       0.110520
     2485.900000       0.137700
     2486.700000       0.163630
     2487.500000       0.194200
     2488.400000       0.219580
     2489.200000       0.253120
     2490.500000       0.298270
     2491.500000       0.342160
     2492.700000       0.392820
     2493.700000       0.435940
     2494.700000       0.477890
     2496.300000       0.535590
     2497.500000       0.586310
     2498.600000       0.629230
     2499.700000       0.664650
     2500.900000       0.708790
     2502.400000       0.751390
     2503.800000       0.793330
     2505.300000       0.835500
     2506.500000       0.872750
     2507.600000       0.905370
     2508.600000       0.931540
     2509.600000       0.953640
     2510.800000       0.975040
     2511.700000       0.990770
     2512.600000       1.000000
     2514.300000       0.998900
     2515.400000       0.993780
     2516.600000       0.976090
     2517.800000       0.956800
     2518.500000       0.935860
     2519.500000       0.909780
     2520.100000       0.889710
     2520.900000       0.866820
     2521.600000       0.842800
     2522.300000       0.820570
     2523.300000       0.788970
     2524.500000       0.751230
     2525.100000       0.720710
     2525.700000       0.690420
     2526.400000       0.660630
     2527.300000       0.626170
     2528.300000       0.585810
     2529.000000       0.550920
     2529.800000       0.518600
     2530.900000       0.480570
     2531.500000       0.450080
     2532.200000       0.417720
     2532.700000       0.386290
     2533.800000       0.346630
     2534.200000       0.319510
     2535.300000       0.287320
     2536.100000       0.253150
     2537.000000       0.222730
     2537.700000       0.191050
     2538.900000       0.159210
     2540.300000       0.127040
     2541.900000       0.097186
     2543.000000       0.076513
     2544.500000       0.060091
     2545.500000       0.045994
     2547.000000       0.036623
     2549.300000       0.025866
     2551.900000       0.019174
     2554.900000       0.012853
     2557.600000       0.010777
     2561.700000       0.008817
     2566.100000       0.005777
     2571.300000       0.003664
     2576.000000       0.001060
     2583.800000       0.000000
