  18  ,noaa_16_hirs_18.flt
Number of data points:
86
Wavenumber (cm-1)   Filter response
     2472.000000       0.000000
     2483.700000       0.022024
     2484.400000       0.026206
     2484.800000       0.027598
     2485.800000       0.031779
     2486.700000       0.037356
     2487.600000       0.044327
     2488.500000       0.051289
     2489.400000       0.058241
     2490.300000       0.069359
     2491.100000       0.081859
     2492.100000       0.099904
     2492.800000       0.117940
     2493.800000       0.145630
     2495.100000       0.191290
     2495.900000       0.232800
     2496.800000       0.281180
     2497.300000       0.311560
     2497.800000       0.353100
     2498.500000       0.408510
     2499.200000       0.476370
     2500.500000       0.587100
     2500.900000       0.642500
     2501.500000       0.699220
     2501.900000       0.749000
     2502.400000       0.782110
     2502.800000       0.822090
     2503.200000       0.848210
     2503.600000       0.881230
     2504.100000       0.911470
     2504.600000       0.936100
     2505.000000       0.959310
     2505.500000       0.975430
     2505.900000       0.986110
     2506.500000       0.995290
     2507.100000       0.998910
     2507.500000       1.000000
     2508.100000       0.997750
     2508.900000       0.992930
     2509.900000       0.982850
     2510.600000       0.975220
     2512.000000       0.962310
     2513.100000       0.954120
     2514.200000       0.945850
     2515.500000       0.942580
     2516.900000       0.939180
     2518.500000       0.936670
     2520.200000       0.931670
     2521.500000       0.927540
     2522.400000       0.920680
     2523.200000       0.913820
     2524.100000       0.905580
     2524.600000       0.895940
     2525.200000       0.887690
     2525.700000       0.875290
     2526.800000       0.853250
     2527.700000       0.833920
     2528.600000       0.811920
     2529.500000       0.781690
     2530.700000       0.737640
     2531.700000       0.696240
     2532.700000       0.649220
     2533.700000       0.604880
     2534.900000       0.542500
     2536.200000       0.482840
     2537.000000       0.441240
     2538.100000       0.385860
     2539.000000       0.344390
     2539.900000       0.304300
     2540.900000       0.265580
     2542.000000       0.222700
     2543.200000       0.185380
     2544.100000       0.154960
     2544.800000       0.138380
     2545.400000       0.124560
     2546.300000       0.109360
     2547.400000       0.088613
     2548.600000       0.073428
     2549.900000       0.059620
     2550.700000       0.052710
     2551.700000       0.044413
     2553.000000       0.036098
     2554.000000       0.031934
     2554.900000       0.026389
     2555.300000       0.018075
     2562.000000       0.000000
