  11  ,noaa_09_hirs_11.flt
Number of data points:
45
Wavenumber (cm-1)   Filter response
     1326.000000       0.000000
     1330.000000       0.020516
     1331.300000       0.036532
     1334.300000       0.054281
     1336.400000       0.076259
     1337.900000       0.096491
     1339.500000       0.127050
     1341.300000       0.176390
     1343.200000       0.250180
     1344.700000       0.328800
     1345.700000       0.425480
     1347.100000       0.528380
     1348.400000       0.631410
     1349.500000       0.722410
     1350.700000       0.806180
     1352.100000       0.871280
     1353.200000       0.916770
     1355.200000       0.954690
     1357.200000       0.974790
     1360.400000       0.988930
     1364.500000       0.996430
     1367.200000       1.000000
     1369.000000       0.998580
     1370.300000       0.985540
     1371.400000       0.960140
     1374.000000       0.892130
     1374.700000       0.842100
     1376.600000       0.748450
     1378.500000       0.655510
     1380.300000       0.574490
     1382.300000       0.511890
     1384.200000       0.476080
     1386.900000       0.405930
     1389.200000       0.353150
     1390.100000       0.312400
     1391.800000       0.241920
     1393.900000       0.164560
     1396.500000       0.097901
     1398.400000       0.067367
     1400.100000       0.053709
     1401.900000       0.040348
     1404.900000       0.025149
     1406.500000       0.012189
     1414.000000       0.008298
     1425.000000       0.000000
