16,    channel 16 SRF extracted from INSAT-3DS_Sounder_SRFs.zip(INSAT-3DS-Sounder-SRF-Ch16.txt) (received Nov 2023)
Number of data points:
33
Wavenumber (cm-1)   Filter response
     2378.687000       0.000000
     2380.952400       0.014100
     2383.222100       0.030300
     2385.496200       0.060000
     2387.774600       0.128700
     2390.057400       0.238400
     2392.344500       0.385500
     2394.636000       0.561000
     2396.931900       0.685200
     2399.232200       0.749700
     2401.537000       0.777700
     2403.846200       0.808100
     2406.159800       0.884300
     2408.477800       0.940300
     2410.800400       0.990100
     2413.127400       1.000000
     2415.458900       0.992700
     2417.795000       0.956500
     2420.135500       0.888600
     2422.480600       0.808000
     2424.830300       0.740400
     2427.184500       0.687200
     2429.543200       0.588300
     2431.906600       0.464000
     2434.274600       0.342500
     2436.647200       0.230600
     2439.024400       0.151600
     2441.406200       0.091900
     2443.792800       0.054600
     2446.184000       0.035800
     2448.579800       0.022900
     2450.980400       0.014900
     2453.385700       0.000000
