  17  ,noaa_06_hirs_17.flt
Number of data points:
46
Wavenumber (cm-1)   Filter response
     2318.000000       0.000000
     2322.900000       0.003708
     2329.200000       0.008246
     2334.900000       0.012500
     2338.100000       0.018127
     2339.600000       0.027218
     2341.300000       0.044127
     2342.700000       0.072264
     2344.100000       0.106270
     2344.700000       0.131070
     2345.800000       0.192370
     2347.400000       0.288920
     2348.100000       0.344410
     2348.900000       0.394080
     2349.700000       0.455040
     2351.300000       0.590440
     2352.800000       0.698970
     2354.200000       0.774130
     2355.200000       0.816740
     2356.000000       0.857460
     2357.400000       0.941750
     2358.200000       0.964930
     2360.100000       1.000000
     2361.200000       0.990300
     2362.500000       0.968460
     2364.100000       0.922990
     2365.500000       0.890400
     2366.900000       0.849800
     2368.800000       0.794540
     2370.000000       0.735690
     2370.900000       0.669250
     2371.500000       0.595460
     2372.300000       0.518850
     2373.100000       0.413430
     2373.900000       0.333110
     2374.500000       0.286090
     2375.000000       0.237000
     2375.400000       0.187820
     2375.800000       0.167750
     2377.000000       0.111830
     2378.100000       0.077943
     2379.500000       0.049040
     2380.200000       0.035665
     2382.200000       0.015007
     2389.100000       0.010559
     2397.900000       0.000000
