1,    channel 1 SRF extracted from L9_TIRS_RSR.xlsx (ch1.txt 10.8)
Number of data points:
41
Wavenumber (cm-1)   Filter response
      847.457600       0.000100
      851.063800       0.000200
      854.700900       0.000400
      858.369100       0.000800
      862.069000       0.001600
      865.800900       0.003300
      869.565200       0.006300
      873.362400       0.012600
      877.193000       0.026600
      881.057300       0.058900
      884.955800       0.128200
      888.888900       0.269800
      892.857100       0.495400
      896.861000       0.750100
      900.900900       0.928900
      904.977400       1.000000
      909.090900       0.996000
      913.242000       0.958300
      917.431200       0.918900
      921.659000       0.882000
      925.925900       0.859000
      930.232600       0.847600
      934.579400       0.837000
      938.967100       0.820700
      943.396200       0.784400
      947.867300       0.722300
      952.381000       0.632000
      956.937800       0.492300
      961.538500       0.318300
      966.183600       0.157100
      970.873800       0.061000
      975.609800       0.022400
      980.392200       0.009000
      985.221700       0.003800
      990.099000       0.001400
      995.024900       0.000500
     1000.000000       0.000200
     1005.025100       0.000100
     1010.101000       0.000100
     1015.228400       0.000100
     1020.408200       0.000100
