   9  ,noaa_17_hirs_09.flt
Number of data points:
53
Wavenumber (cm-1)   Filter response
      991.500000       0.000000
      991.640000       0.001282
     1003.000000       0.012552
     1005.000000       0.015493
     1006.000000       0.019832
     1007.000000       0.025526
     1008.000000       0.033562
     1009.000000       0.044416
     1010.000000       0.058448
     1011.000000       0.077855
     1012.000000       0.105100
     1013.000000       0.140320
     1014.000000       0.185790
     1015.000000       0.244980
     1016.000000       0.317990
     1017.000000       0.401480
     1018.000000       0.491260
     1019.000000       0.581270
     1020.000000       0.666120
     1021.000000       0.739060
     1022.000000       0.798220
     1023.000000       0.843380
     1024.000000       0.876610
     1025.000000       0.899000
     1026.000000       0.917290
     1027.000000       0.935360
     1028.000000       0.951620
     1029.000000       0.965730
     1030.000000       0.978550
     1031.000000       0.989160
     1032.000000       0.996660
     1033.000000       1.000000
     1034.000000       0.995750
     1035.000000       0.977320
     1036.000000       0.938330
     1037.000000       0.876870
     1038.000000       0.790760
     1039.000000       0.684210
     1040.000000       0.563990
     1041.000000       0.444680
     1042.000000       0.338820
     1043.000000       0.248070
     1044.000000       0.173360
     1045.000000       0.118680
     1046.000000       0.083462
     1047.000000       0.058799
     1048.000000       0.040598
     1049.000000       0.029100
     1050.000000       0.020602
     1051.000000       0.014103
     1051.900000       0.012475
     1062.300000       0.001234
     1063.000000       0.000000
