  13  ,noaa_15_hirs_13.flt
Number of data points:
95
Wavenumber (cm-1)   Filter response
     2163.000000       0.000000
     2168.400000       0.023384
     2168.900000       0.029138
     2169.400000       0.034150
     2169.900000       0.036749
     2170.400000       0.039535
     2170.900000       0.046775
     2171.400000       0.060511
     2171.900000       0.079261
     2172.400000       0.100790
     2172.900000       0.125300
     2173.400000       0.154820
     2173.900000       0.192880
     2174.400000       0.241320
     2174.900000       0.298480
     2175.400000       0.364920
     2175.900000       0.442510
     2176.400000       0.527600
     2176.900000       0.610680
     2177.400000       0.686540
     2177.900000       0.758150
     2178.400000       0.827560
     2178.900000       0.888070
     2179.400000       0.933910
     2179.900000       0.965830
     2180.400000       0.988470
     2180.900000       1.000000
     2181.400000       0.997450
     2181.900000       0.981150
     2182.400000       0.955730
     2182.900000       0.925460
     2183.400000       0.890510
     2183.900000       0.851640
     2184.400000       0.812010
     2184.900000       0.774590
     2185.400000       0.741810
     2185.900000       0.714990
     2186.400000       0.693950
     2186.900000       0.677360
     2187.400000       0.666160
     2187.900000       0.659050
     2188.400000       0.654000
     2188.900000       0.651940
     2189.400000       0.654750
     2189.900000       0.660580
     2190.400000       0.666590
     2190.900000       0.671670
     2191.400000       0.676010
     2191.900000       0.679600
     2192.400000       0.680890
     2192.900000       0.679350
     2193.400000       0.676300
     2193.900000       0.673620
     2194.400000       0.670330
     2194.900000       0.665720
     2195.400000       0.658830
     2195.900000       0.648140
     2196.400000       0.632120
     2196.900000       0.612090
     2197.400000       0.588050
     2197.900000       0.560920
     2198.400000       0.532620
     2198.900000       0.504080
     2199.400000       0.474920
     2199.900000       0.446100
     2200.400000       0.418400
     2200.900000       0.389900
     2201.400000       0.361740
     2201.900000       0.335230
     2202.400000       0.307910
     2202.900000       0.277480
     2203.400000       0.247780
     2203.900000       0.222830
     2204.400000       0.201110
     2204.900000       0.182070
     2205.400000       0.164920
     2205.900000       0.146200
     2206.400000       0.126680
     2206.900000       0.112910
     2207.400000       0.105860
     2207.900000       0.098228
     2208.400000       0.085366
     2208.900000       0.069391
     2209.400000       0.054744
     2209.900000       0.046269
     2210.400000       0.043398
     2210.900000       0.040523
     2211.400000       0.033955
     2211.900000       0.029126
     2212.400000       0.027982
     2212.900000       0.028002
     2213.400000       0.026660
     2213.900000       0.022784
     2214.500000       0.019491
     2218.000000       0.000000
