12, INSAT-3D Sounder  MWIR-5
Number of data points:
43
Wavenumber (cm-1)   Filter response
     1456.664200       0.000000
     1459.854000       0.001000
     1463.057800       0.002200
     1466.275700       0.012200
     1469.507700       0.019700
     1472.754100       0.028900
     1476.014800       0.045800
     1479.289900       0.052300
     1482.579700       0.085400
     1485.884100       0.110900
     1489.203300       0.173300
     1492.537300       0.253500
     1495.886300       0.354200
     1499.250400       0.423300
     1502.629600       0.515700
     1506.024100       0.613100
     1509.434000       0.733000
     1512.859300       0.823800
     1516.300200       0.871500
     1519.756800       0.923400
     1523.229200       0.918800
     1526.717600       0.900400
     1530.221900       0.943100
     1533.742300       1.000000
     1537.279000       0.986300
     1540.832000       0.966000
     1544.401500       0.916100
     1547.987600       0.842700
     1551.590400       0.814800
     1555.210000       0.789500
     1558.846500       0.700000
     1562.500000       0.542800
     1566.170700       0.402200
     1569.858700       0.340600
     1573.564100       0.304400
     1577.287100       0.198200
     1581.027700       0.117500
     1584.786100       0.073700
     1588.562400       0.050700
     1592.356700       0.036700
     1596.169200       0.020800
     1600.000000       0.021700
     1603.849200       0.001000
