  16  ,noaa_15_hirs_16.flt
Number of data points:
50
Wavenumber (cm-1)   Filter response
     2211.000000       0.000000
     2216.800000       0.015362
     2217.700000       0.017000
     2218.700000       0.022761
     2219.700000       0.030394
     2220.700000       0.040201
     2221.700000       0.053075
     2222.700000       0.070425
     2223.700000       0.094136
     2224.700000       0.126250
     2225.700000       0.168970
     2226.700000       0.223580
     2227.700000       0.289710
     2228.700000       0.365780
     2229.700000       0.448620
     2230.700000       0.533780
     2231.700000       0.616400
     2232.700000       0.691580
     2233.700000       0.755320
     2234.700000       0.806220
     2235.700000       0.844010
     2236.700000       0.868770
     2237.700000       0.881120
     2238.700000       0.881940
     2239.700000       0.872030
     2240.700000       0.853910
     2241.700000       0.831620
     2242.700000       0.810140
     2243.700000       0.795150
     2244.700000       0.791280
     2245.700000       0.803630
     2246.700000       0.836950
     2247.700000       0.890320
     2248.700000       0.952940
     2249.700000       1.000000
     2250.700000       0.998610
     2251.700000       0.924710
     2252.700000       0.780040
     2253.700000       0.594180
     2254.700000       0.410780
     2255.700000       0.263780
     2256.700000       0.164040
     2257.700000       0.103960
     2258.700000       0.069607
     2259.700000       0.048991
     2260.700000       0.035323
     2261.700000       0.025732
     2263.200000       0.016957
     2272.100000       0.001692
     2273.000000       0.000000
