  13  ,noaa_09_hirs_13.flt
Number of data points:
57
Wavenumber (cm-1)   Filter response
     2134.900000       0.000000
     2159.200000       0.000000
     2162.600000       0.004065
     2165.600000       0.007195
     2167.700000       0.011151
     2169.000000       0.012534
     2170.400000       0.020983
     2171.400000       0.030221
     2172.500000       0.044222
     2173.500000       0.059739
     2174.500000       0.081617
     2175.400000       0.115660
     2176.200000       0.145530
     2176.900000       0.188350
     2177.900000       0.262130
     2178.800000       0.353500
     2179.800000       0.424170
     2180.400000       0.502890
     2181.500000       0.640460
     2182.500000       0.739620
     2182.800000       0.776470
     2183.500000       0.806110
     2184.200000       0.840280
     2185.100000       0.873480
     2186.000000       0.901120
     2186.800000       0.926180
     2187.600000       0.948330
     2188.400000       0.969060
     2189.200000       0.988140
     2189.900000       1.000000
     2190.600000       0.902710
     2191.500000       0.906040
     2192.500000       0.903130
     2193.200000       0.891930
     2194.100000       0.874400
     2195.100000       0.858260
     2196.100000       0.828430
     2196.900000       0.801860
     2197.700000       0.760920
     2198.600000       0.703670
     2199.800000       0.596950
     2201.300000       0.462980
     2202.200000       0.374210
     2203.000000       0.302410
     2204.100000       0.208270
     2205.600000       0.127560
     2206.500000       0.093156
     2207.300000       0.068314
     2208.000000       0.057408
     2208.900000       0.042466
     2210.100000       0.030205
     2211.800000       0.014075
     2214.500000       0.011715
     2218.600000       0.009890
     2223.000000       0.006753
     2226.600000       0.002881
     2244.900000       0.000000
