 1    ,fy2_03_vissr_01.flt
Number of data points:
55
Wavenumber (cm-1)   Filter response
     2272.727300       0.005797
     2283.105000       0.006847
     2293.578000       0.008684
     2304.147500       0.010653
     2314.814800       0.011975
     2325.581400       0.010589
     2336.448600       0.008994
     2347.417800       0.011293
     2358.490600       0.015359
     2369.668200       0.024562
     2380.952400       0.054418
     2392.344500       0.092633
     2403.846200       0.125484
     2415.458900       0.174696
     2427.184500       0.236295
     2439.024400       0.304472
     2450.980400       0.379508
     2463.054200       0.451811
     2475.247500       0.511635
     2487.562200       0.561879
     2500.000000       0.604790
     2512.562800       0.646735
     2525.252500       0.688547
     2538.071100       0.720213
     2551.020400       0.752081
     2564.102600       0.802908
     2577.319600       0.835149
     2590.673600       0.861942
     2604.166700       0.885817
     2617.801000       0.914376
     2631.578900       0.940289
     2645.502600       0.978475
     2659.574500       0.978466
     2673.796800       0.994297
     2688.172000       1.000000
     2702.702700       0.996523
     2717.391300       0.960073
     2732.240400       0.913554
     2747.252700       0.863792
     2762.430900       0.806150
     2777.777800       0.743971
     2793.296100       0.654871
     2808.988800       0.597756
     2824.858800       0.548071
     2840.909100       0.443663
     2857.142900       0.356930
     2873.563200       0.317642
     2890.173400       0.273425
     2906.976700       0.195057
     2923.976600       0.116922
     2941.176500       0.065438
     2958.579900       0.034460
     2976.190500       0.018761
     2994.012000       0.012342
     3012.048200       0.005923
