   5  ,noaa_08_hirs_05.flt
Number of data points:
45
Wavenumber (cm-1)   Filter response
      690.100000       0.000000
      694.920000       0.001767
      698.600000       0.007468
      700.150000       0.013876
      702.010000       0.024712
      703.040000       0.039794
      704.080000       0.064883
      705.190000       0.105190
      706.270000       0.176070
      707.340000       0.259550
      707.630000       0.302410
      708.410000       0.382250
      709.070000       0.468410
      709.580000       0.554050
      710.230000       0.633720
      710.880000       0.711770
      711.870000       0.790440
      712.640000       0.860220
      713.310000       0.889430
      714.240000       0.929130
      715.320000       0.965620
      716.380000       0.992320
      717.430000       1.000000
      718.520000       0.996960
      719.030000       0.974640
      720.010000       0.952490
      721.260000       0.901140
      722.150000       0.846440
      723.320000       0.778170
      723.810000       0.736900
      724.620000       0.667530
      725.130000       0.615710
      725.690000       0.540210
      726.500000       0.436360
      727.290000       0.349210
      728.080000       0.272570
      729.110000       0.198020
      730.330000       0.115780
      731.150000       0.079039
      732.100000       0.050233
      733.270000       0.031926
      734.980000       0.015011
      736.410000       0.007902
      742.290000       0.000152
      747.930000       0.000000
