  15  ,noaa_10_hirs_15.flt
Number of data points:
81
Wavenumber (cm-1)   Filter response
     2205.400000       0.000000
     2206.500000       0.001283
     2207.300000       0.002841
     2208.900000       0.003871
     2210.400000       0.004089
     2212.200000       0.006783
     2213.900000       0.007851
     2215.500000       0.010547
     2217.400000       0.012667
     2219.000000       0.014108
     2220.100000       0.020286
     2220.900000       0.026421
     2221.700000       0.037914
     2222.700000       0.054950
     2223.500000       0.080905
     2224.200000       0.098576
     2224.700000       0.122060
     2225.100000       0.146830
     2225.600000       0.186070
     2226.200000       0.238470
     2226.500000       0.283660
     2226.800000       0.346620
     2227.100000       0.397030
     2227.400000       0.460110
     2227.900000       0.526440
     2228.100000       0.601150
     2228.500000       0.675320
     2228.800000       0.748370
     2229.200000       0.822170
     2229.500000       0.869630
     2229.900000       0.920270
     2230.200000       0.961510
     2230.500000       0.991230
     2230.900000       1.000000
     2231.300000       0.988310
     2231.600000       0.959380
     2232.000000       0.932600
     2232.500000       0.893410
     2232.900000       0.856990
     2233.500000       0.807530
     2234.000000       0.764930
     2234.600000       0.727140
     2235.000000       0.704410
     2235.900000       0.681530
     2236.600000       0.673090
     2237.400000       0.677490
     2238.200000       0.686470
     2239.200000       0.707850
     2240.100000       0.731040
     2241.000000       0.755830
     2241.800000       0.779500
     2242.400000       0.797870
     2243.200000       0.805710
     2243.900000       0.804890
     2244.400000       0.797860
     2244.800000       0.787240
     2245.300000       0.771410
     2246.000000       0.748670
     2246.500000       0.721490
     2247.100000       0.690420
     2247.900000       0.638970
     2248.600000       0.605320
     2249.100000       0.572890
     2249.700000       0.540540
     2250.500000       0.490240
     2251.300000       0.437790
     2252.000000       0.388360
     2252.900000       0.330610
     2253.800000       0.281620
     2254.700000       0.227880
     2255.300000       0.192800
     2256.400000       0.144970
     2257.600000       0.108810
     2258.600000       0.076051
     2259.500000       0.055940
     2260.800000       0.032281
     2262.200000       0.025392
     2264.100000       0.014723
     2265.900000       0.010212
     2268.500000       0.002079
     2271.500000       0.000000
