   9  ,noaa_10_hirs_09.flt
Number of data points:
81
Wavenumber (cm-1)   Filter response
      976.110000       0.000000
      981.320000       0.001472
      986.370000       0.004611
      990.020000       0.008929
      993.660000       0.012228
      996.920000       0.014848
      999.010000       0.022665
     1001.000000       0.031611
     1003.200000       0.044478
     1004.200000       0.060394
     1005.700000       0.080301
     1006.900000       0.102240
     1007.700000       0.123710
     1008.400000       0.150240
     1008.700000       0.171540
     1009.400000       0.207200
     1009.900000       0.242800
     1010.800000       0.285940
     1011.600000       0.334580
     1012.400000       0.385970
     1012.600000       0.433020
     1013.300000       0.480610
     1014.000000       0.528550
     1014.600000       0.579280
     1015.300000       0.628170
     1015.700000       0.674680
     1016.200000       0.723370
     1016.900000       0.767020
     1017.300000       0.804770
     1017.900000       0.839670
     1018.800000       0.876500
     1019.600000       0.908750
     1020.600000       0.936440
     1021.600000       0.955460
     1022.700000       0.968660
     1024.000000       0.982410
     1025.900000       0.987780
     1027.800000       0.985530
     1029.400000       0.983410
     1031.600000       0.985330
     1033.000000       0.991720
     1034.000000       0.998890
     1034.900000       1.000000
     1035.700000       0.993900
     1036.300000       0.979990
     1037.000000       0.963220
     1037.300000       0.941850
     1037.900000       0.911050
     1038.300000       0.873800
     1038.800000       0.831520
     1039.100000       0.797420
     1039.800000       0.743150
     1040.200000       0.706280
     1040.600000       0.668830
     1040.900000       0.630310
     1041.300000       0.586420
     1041.900000       0.546290
     1042.200000       0.489510
     1042.500000       0.447690
     1043.100000       0.400360
     1043.400000       0.349700
     1044.200000       0.300650
     1044.700000       0.259840
     1045.300000       0.222070
     1045.600000       0.191910
     1046.300000       0.160810
     1046.900000       0.133200
     1047.500000       0.109380
     1048.500000       0.089668
     1049.400000       0.066307
     1050.700000       0.048760
     1052.500000       0.037038
     1054.300000       0.026045
     1056.400000       0.017451
     1057.800000       0.012729
     1060.600000       0.010636
     1065.400000       0.006516
     1067.000000       0.005501
     1069.500000       0.003731
     1071.700000       0.002224
     1073.800000       0.000000
