15, INSAT-3D Sounder  SWIR-3
Number of data points:
37
Wavenumber (cm-1)   Filter response
     2196.836600       0.000000
     2198.768700       0.001000
     2200.704200       0.010000
     2202.643200       0.020000
     2204.585500       0.040000
     2206.531300       0.070000
     2208.480600       0.107800
     2210.433200       0.161800
     2212.389400       0.222700
     2214.349000       0.311100
     2216.312100       0.395000
     2218.278600       0.506400
     2220.248700       0.609700
     2222.222200       0.685400
     2224.199300       0.773600
     2226.179900       0.846600
     2228.164000       0.899300
     2230.151700       0.990000
     2232.142900       0.985100
     2234.137600       1.000000
     2236.136000       0.955800
     2238.137900       0.950400
     2240.143400       0.827100
     2242.152500       0.695200
     2244.165200       0.576400
     2246.181500       0.467200
     2248.201400       0.340400
     2250.225000       0.251100
     2252.252300       0.175300
     2254.283100       0.121500
     2256.317700       0.080000
     2258.355900       0.060000
     2260.397800       0.040000
     2262.443400       0.020000
     2264.492800       0.010000
     2266.545800       0.001000
     2268.602500       0.000000
