  14  ,noaa_09_hirs_14.flt
Number of data points:
56
Wavenumber (cm-1)   Filter response
     2170.100000       0.000000
     2173.200000       0.003083
     2177.900000       0.005491
     2182.400000       0.008494
     2187.100000       0.011511
     2188.500000       0.015442
     2190.100000       0.023385
     2191.600000       0.040657
     2192.700000       0.060576
     2193.400000       0.083399
     2194.200000       0.111260
     2195.200000       0.156270
     2195.900000       0.207250
     2196.400000       0.255540
     2197.300000       0.329100
     2197.900000       0.398330
     2198.500000       0.464980
     2199.000000       0.557070
     2199.800000       0.647280
     2200.500000       0.724050
     2201.100000       0.772600
     2201.600000       0.820960
     2202.300000       0.853660
     2203.000000       0.868100
     2204.000000       0.879430
     2205.200000       0.888950
     2206.100000       0.899350
     2207.300000       0.913870
     2209.100000       0.953710
     2210.100000       0.978010
     2210.800000       0.993410
     2211.500000       1.000000
     2212.400000       0.994550
     2213.300000       0.987810
     2214.200000       0.967560
     2215.000000       0.947310
     2216.000000       0.915610
     2217.000000       0.863710
     2217.700000       0.793740
     2218.500000       0.720220
     2219.400000       0.630170
     2220.400000       0.519950
     2221.300000       0.409680
     2222.300000       0.309600
     2223.300000       0.220490
     2224.200000       0.162080
     2224.900000       0.120320
     2226.200000       0.074709
     2227.400000       0.045339
     2228.500000       0.030070
     2230.400000       0.021264
     2231.800000       0.013838
     2234.000000       0.011415
     2237.400000       0.005943
     2241.800000       0.003491
     2250.000000       0.000000
