2, INSAT-3DS-Imager-SRF-Ch2.txt  channel 2 SRF
Number of data points:
60
Wavenumber (cm-1)   Filter response
     5714.285700       0.000522
     5730.659000       0.000823
     5747.126400       0.001256
     5763.688800       0.002036
     5780.346800       0.003173
     5797.101400       0.004951
     5813.953500       0.007769
     5830.903800       0.012261
     5847.953200       0.019476
     5865.102600       0.030769
     5882.352900       0.049477
     5899.705000       0.080353
     5917.159800       0.134375
     5934.718100       0.220935
     5952.381000       0.358872
     5970.149300       0.548868
     5988.024000       0.748996
     6006.006000       0.878150
     6024.096400       0.937514
     6042.296100       0.965161
     6060.606100       0.971177
     6079.027400       0.956493
     6097.561000       0.946374
     6116.208000       0.953540
     6134.969300       0.943946
     6153.846200       0.942369
     6172.839500       0.955209
     6191.950500       0.962733
     6211.180100       0.960422
     6230.529600       0.971778
     6250.000000       0.981585
     6269.592500       0.978098
     6289.308200       1.000000
     6309.148300       0.997326
     6329.113900       0.987021
     6349.206300       0.977766
     6369.426800       0.918628
     6389.776400       0.833423
     6410.256400       0.726892
     6430.868200       0.572467
     6451.612900       0.444875
     6472.491900       0.322574
     6493.506500       0.228929
     6514.658000       0.165039
     6535.947700       0.114822
     6557.377000       0.083346
     6578.947400       0.058954
     6600.660100       0.041716
     6622.516600       0.029835
     6644.518300       0.020828
     6666.666700       0.014657
     6688.963200       0.009713
     6711.409400       0.006463
     6734.006700       0.004092
     6756.756800       0.002504
     6779.661000       0.001479
     6802.721100       0.000818
     6825.938600       0.000465
     6849.315100       0.000246
     6872.852200       0.000144
