6,    channel 6 SRF extracted from INSAT-3DS_Sounder_SRFs.zip(INSAT-3DS-Sounder-SRF-Ch6.txt) (received Nov 2023)
Number of data points:
59
Wavenumber (cm-1)   Filter response
      766.577200       0.000000
      767.459700       0.010000
      768.344200       0.026400
      769.230800       0.039600
      770.119400       0.047700
      771.010000       0.065500
      771.902700       0.085300
      772.797500       0.110000
      773.694400       0.145200
      774.593300       0.194700
      775.494400       0.255600
      776.397500       0.320000
      777.302800       0.412200
      778.210100       0.510100
      779.119600       0.603900
      780.031200       0.691100
      780.944900       0.784000
      781.860800       0.865400
      782.778900       0.915400
      783.699100       0.959000
      784.621400       0.979500
      785.546000       0.974700
      786.472700       1.000000
      787.401600       0.995000
      788.332700       0.977300
      789.266000       0.981000
      790.201500       0.979100
      791.139200       0.960700
      792.079200       0.935000
      793.021400       0.925100
      793.965900       0.923700
      794.912600       0.917100
      795.861500       0.895700
      796.812700       0.895600
      797.766300       0.902900
      798.722000       0.881500
      799.680100       0.884200
      800.640500       0.890400
      801.603200       0.883900
      802.568200       0.871400
      803.535600       0.837800
      804.505200       0.780000
      805.477200       0.712400
      806.451600       0.636700
      807.428300       0.543700
      808.407400       0.449500
      809.388900       0.356000
      810.372800       0.274900
      811.359000       0.213400
      812.347700       0.167100
      813.338800       0.119400
      814.332200       0.092200
      815.328200       0.071200
      816.326500       0.052500
      817.327300       0.044600
      818.330600       0.035400
      819.336300       0.026300
      820.344500       0.010000
      821.355200       0.000000
