9, INSAT-3DR Sounder  MWIR-2
Number of data points:
38
Wavenumber (cm-1)   Filter response
      999.500200       0.000000
     1001.001000       0.005000
     1002.506300       0.010000
     1004.016100       0.020600
     1005.530400       0.028700
     1007.049300       0.032700
     1008.572900       0.042800
     1010.101000       0.070300
     1011.633800       0.117000
     1013.171200       0.196700
     1014.713300       0.319700
     1016.260200       0.481400
     1017.811700       0.633000
     1019.368000       0.777800
     1020.929000       0.884300
     1022.494900       0.963300
     1024.065500       1.000000
     1025.641000       0.994800
     1027.221400       0.998900
     1028.806600       0.989200
     1030.396700       0.988000
     1031.991700       0.983000
     1033.591700       0.975900
     1035.196700       0.952100
     1036.806600       0.883700
     1038.421600       0.783500
     1040.041600       0.646900
     1041.666700       0.506200
     1043.296800       0.362800
     1044.932100       0.236500
     1046.572500       0.134900
     1048.218000       0.077900
     1049.868800       0.052400
     1051.524700       0.031900
     1053.185900       0.024200
     1054.852300       0.014500
     1056.524000       0.010000
     1058.201100       0.000000
