   6  ,noaa_09_hirs_06.flt
Number of data points:
50
Wavenumber (cm-1)   Filter response
      704.990000       0.000000
      708.230000       0.007299
      710.690000       0.011784
      712.720000       0.016444
      714.240000       0.027472
      715.660000       0.046692
      717.120000       0.069179
      718.310000       0.093628
      718.970000       0.120520
      719.560000       0.153280
      720.860000       0.225140
      721.540000       0.278750
      722.150000       0.339470
      722.740000       0.377470
      723.570000       0.457530
      724.340000       0.523720
      724.820000       0.551320
      725.570000       0.622760
      726.500000       0.704490
      727.570000       0.798630
      728.630000       0.869500
      729.200000       0.911770
      729.710000       0.940360
      730.530000       0.970240
      731.280000       0.991300
      731.940000       1.000000
      732.680000       0.990280
      733.770000       0.982540
      734.760000       0.963340
      735.510000       0.936660
      736.290000       0.907410
      737.230000       0.880710
      738.000000       0.836300
      738.770000       0.787770
      739.730000       0.727350
      740.570000       0.659150
      741.280000       0.592280
      741.790000       0.508480
      742.610000       0.422290
      743.490000       0.323800
      744.310000       0.235060
      745.310000       0.170790
      746.390000       0.110140
      747.370000       0.081494
      748.920000       0.040326
      751.410000       0.021604
      753.010000       0.019930
      756.600000       0.015505
      760.750000       0.009668
      765.000000       0.000000
