   3  ,noaa_07_hirs_03.flt
Number of data points:
54
Wavenumber (cm-1)   Filter response
      664.030000       0.000000
      665.300000       0.003503
      669.870000       0.009046
      672.130000       0.011468
      673.530000       0.019240
      674.180000       0.022364
      674.420000       0.026807
      675.270000       0.034795
      676.650000       0.055045
      677.870000       0.090733
      679.080000       0.126820
      679.830000       0.153880
      680.990000       0.209030
      681.770000       0.255930
      682.760000       0.313540
      683.730000       0.393470
      684.350000       0.437020
      684.910000       0.478310
      685.700000       0.554720
      686.350000       0.624950
      686.830000       0.665870
      687.800000       0.774310
      688.020000       0.806850
      688.950000       0.880890
      689.610000       0.934150
      690.180000       0.963730
      690.770000       0.989440
      691.500000       0.998750
      692.310000       1.000000
      692.850000       0.998440
      694.770000       0.956610
      695.760000       0.914360
      696.720000       0.850520
      697.880000       0.727010
      698.300000       0.645830
      698.840000       0.562990
      700.070000       0.405110
      700.840000       0.279630
      701.520000       0.217650
      701.870000       0.186240
      702.470000       0.159370
      703.030000       0.118240
      703.360000       0.095190
      704.040000       0.076131
      704.460000       0.071949
      704.950000       0.057744
      705.720000       0.049353
      707.070000       0.031849
      707.920000       0.026747
      710.030000       0.025513
      712.290000       0.016752
      713.340000       0.017342
      716.400000       0.004244
      717.000000       0.000000
