10, INSAT-3D Sounder  MWIR-3
Number of data points:
52
Wavenumber (cm-1)   Filter response
     1273.074500       0.000000
     1275.510200       0.001000
     1277.955300       0.002000
     1280.409700       0.003000
     1282.873600       0.004000
     1285.347000       0.010600
     1287.830000       0.013300
     1290.322600       0.016100
     1292.824800       0.019700
     1295.336800       0.027700
     1297.858500       0.040300
     1300.390100       0.058200
     1302.931600       0.078000
     1305.483000       0.113200
     1308.044500       0.167700
     1310.616000       0.234000
     1313.197600       0.313900
     1315.789500       0.396600
     1318.391600       0.482400
     1321.004000       0.550000
     1323.626700       0.616400
     1326.259900       0.688100
     1328.903700       0.761900
     1331.557900       0.828700
     1334.222800       0.896600
     1336.898400       0.947200
     1339.584700       0.988800
     1342.281900       1.000000
     1344.989900       0.986000
     1347.708900       0.976900
     1350.438900       0.964600
     1353.180000       0.941800
     1355.932200       0.928100
     1358.695700       0.923200
     1361.470400       0.897000
     1364.256500       0.829300
     1367.054000       0.761300
     1369.863000       0.571600
     1372.683600       0.517800
     1375.515800       0.400400
     1378.359800       0.311300
     1381.215500       0.217100
     1384.083000       0.160700
     1386.962600       0.111600
     1389.854100       0.072400
     1392.757700       0.044800
     1395.673400       0.028800
     1398.601400       0.020400
     1401.541700       0.010600
     1404.494400       0.006400
     1407.459500       0.001000
     1410.437200       0.000000
