04  , Filter noaa_05_avhrr_04.flt
Number of data points:
60
Wavenumber (cm-1)   Filter response
      840.034000       0.000000
      842.447900       0.002648
      844.861800       0.005173
      847.275700       0.007452
      849.689600       0.010106
      852.103500       0.017491
      854.517400       0.035132
      856.931300       0.067300
      859.345200       0.111939
      861.759100       0.165012
      864.173000       0.223183
      866.586900       0.287190
      869.000800       0.359260
      871.414700       0.440677
      873.828600       0.524988
      876.242500       0.601882
      878.656400       0.661641
      881.070300       0.703139
      883.484200       0.731652
      885.898100       0.752721
      888.312000       0.769787
      890.725900       0.784044
      893.139800       0.796053
      895.553700       0.806868
      897.967600       0.817122
      900.381500       0.827727
      902.795400       0.839525
      905.209300       0.853080
      907.623200       0.869022
      910.037100       0.887984
      912.451000       0.904347
      914.864900       0.905050
      917.278800       0.880610
      919.692700       0.866002
      922.106600       0.847742
      924.520500       0.837910
      926.934400       0.841492
      929.348300       0.855046
      931.762200       0.869935
      934.176100       0.896552
      936.590000       0.945432
      939.003900       0.992415
      941.417800       1.000000
      943.831700       0.937917
      946.245600       0.798300
      948.659500       0.614453
      951.073400       0.425802
      953.487300       0.270827
      955.901200       0.165005
      958.315100       0.098258
      960.729000       0.059058
      963.142900       0.036325
      965.556800       0.023608
      967.970700       0.017472
      970.384600       0.014531
      972.798500       0.011703
      975.212400       0.008188
      977.626300       0.004210
      980.040200       0.000000
      982.454100       0.000000
