  18  ,noaa_08_hirs_18.flt
Number of data points:
50
Wavenumber (cm-1)   Filter response
     2448.200000       0.000000
     2458.400000       0.005637
     2465.900000       0.008887
     2473.500000       0.012470
     2475.100000       0.017439
     2478.000000       0.028201
     2480.300000       0.039469
     2482.500000       0.055595
     2483.900000       0.072509
     2485.300000       0.101580
     2487.300000       0.140140
     2489.200000       0.189750
     2490.500000       0.253070
     2492.500000       0.326940
     2494.200000       0.414390
     2496.000000       0.499920
     2498.900000       0.649470
     2500.900000       0.729650
     2503.300000       0.791790
     2506.200000       0.859570
     2509.300000       0.923310
     2511.000000       0.955180
     2512.000000       0.972800
     2513.500000       0.989240
     2514.800000       0.998480
     2516.300000       1.000000
     2517.500000       0.995230
     2518.800000       0.982830
     2519.800000       0.962620
     2521.100000       0.936380
     2523.200000       0.886800
     2524.900000       0.839600
     2527.000000       0.772180
     2528.500000       0.704680
     2530.000000       0.634590
     2531.600000       0.565580
     2534.500000       0.435800
     2537.000000       0.315300
     2538.700000       0.238920
     2540.100000       0.193000
     2542.300000       0.143640
     2543.500000       0.115790
     2544.500000       0.094973
     2546.000000       0.071203
     2548.400000       0.049480
     2550.800000       0.030856
     2553.100000       0.024522
     2559.000000       0.012648
     2570.300000       0.008201
     2581.600000       0.000000
