04  , Filter noaa_08_avhrr_04.flt
Number of data points:
60
Wavenumber (cm-1)   Filter response
      840.336000       0.000000
      843.263000       0.006154
      846.190000       0.010409
      849.117000       0.011107
      852.044000       0.010717
      854.971000       0.015172
      857.898000       0.030108
      860.825000       0.059914
      863.752000       0.108704
      866.679000       0.179939
      869.606000       0.276548
      872.533000       0.395759
      875.460000       0.513091
      878.387000       0.599450
      881.314000       0.647176
      884.241000       0.675949
      887.168000       0.705313
      890.095000       0.738249
      893.022000       0.769306
      895.949000       0.794304
      898.876000       0.812826
      901.803000       0.825569
      904.730000       0.836153
      907.657000       0.853144
      910.584000       0.885106
      913.511000       0.925910
      916.438000       0.955296
      919.365000       0.954739
      922.292000       0.932943
      925.219000       0.916649
      928.146000       0.929322
      931.073000       0.963025
      934.000000       0.994012
      936.927000       1.000000
      939.854000       0.969361
      942.781000       0.895133
      945.708000       0.773066
      948.635000       0.619024
      951.562000       0.458290
      954.489000       0.314693
      957.416000       0.198245
      960.343000       0.111232
      963.270000       0.055461
      966.197000       0.026280
      969.124000       0.013984
      972.051000       0.008836
      974.978000       0.005188
      977.905000       0.002680
      980.832000       0.001302
      983.759000       0.000927
      986.686000       0.001129
      989.613000       0.001430
      992.540000       0.001420
      995.467000       0.001110
      998.394000       0.000690
     1001.321000       0.000341
     1004.248000       0.000141
     1007.175000       0.000045
     1010.102000       0.000000
     1013.029000       0.000000
