   5  ,noaa_09_hirs_05.flt
Number of data points:
46
Wavenumber (cm-1)   Filter response
      689.880000       0.000000
      695.410000       0.002585
      698.690000       0.005758
      701.130000       0.021558
      703.060000       0.047644
      704.310000       0.083155
      705.170000       0.116580
      705.790000       0.156270
      706.880000       0.240300
      707.310000       0.285510
      708.280000       0.428080
      708.970000       0.539290
      709.720000       0.636480
      710.280000       0.693480
      711.220000       0.782930
      711.830000       0.852840
      712.670000       0.903150
      713.200000       0.928700
      714.020000       0.952000
      714.710000       0.972770
      715.370000       0.988550
      716.460000       1.000000
      717.650000       0.986590
      718.520000       0.964040
      719.150000       0.940690
      720.120000       0.898730
      721.220000       0.849990
      721.790000       0.818650
      722.480000       0.775180
      722.890000       0.744890
      723.580000       0.685290
      724.190000       0.640650
      724.680000       0.575650
      725.450000       0.474250
      726.780000       0.346890
      727.720000       0.250660
      728.530000       0.199500
      729.220000       0.148020
      729.950000       0.103410
      731.230000       0.062619
      732.180000       0.043152
      733.020000       0.032083
      734.280000       0.022422
      736.580000       0.011581
      743.750000       0.000961
      747.830000       0.000000
