  10  ,noaa_15_hirs_10.flt
Number of data points:
59
Wavenumber (cm-1)   Filter response
      783.800000       0.000000
      786.500000       0.013567
      787.800000       0.020168
      788.300000       0.031121
      788.800000       0.040607
      789.300000       0.051083
      789.800000       0.069414
      790.300000       0.100450
      790.800000       0.139840
      791.300000       0.185100
      791.800000       0.241110
      792.300000       0.313050
      792.800000       0.398220
      793.300000       0.484470
      793.800000       0.561670
      794.300000       0.630470
      794.800000       0.696420
      795.300000       0.751990
      795.800000       0.786660
      796.300000       0.802290
      796.800000       0.816260
      797.300000       0.838070
      797.800000       0.857900
      798.300000       0.873790
      798.800000       0.895960
      799.300000       0.924370
      799.800000       0.950170
      800.300000       0.973280
      800.800000       0.990810
      801.300000       0.998550
      801.800000       1.000000
      802.300000       0.994210
      802.800000       0.982440
      803.300000       0.971520
      803.800000       0.958580
      804.300000       0.939570
      804.800000       0.918960
      805.300000       0.897730
      805.800000       0.867350
      806.300000       0.833530
      806.800000       0.795110
      807.300000       0.735940
      807.800000       0.655800
      808.300000       0.563320
      808.800000       0.466780
      809.300000       0.370680
      809.800000       0.289730
      810.300000       0.225970
      810.800000       0.173390
      811.300000       0.131460
      811.800000       0.097663
      812.300000       0.072172
      812.800000       0.050318
      813.300000       0.034257
      813.800000       0.027443
      814.300000       0.027481
      814.800000       0.022235
      815.600000       0.014363
      817.100000       0.000000
