  17  ,noaa_07_hirs_17.flt
Number of data points:
32
Wavenumber (cm-1)   Filter response
     2300.000000       0.000000
     2320.000000       0.000000
     2333.100000       0.015523
     2337.200000       0.042370
     2338.200000       0.056561
     2339.300000       0.081953
     2340.600000       0.114960
     2342.200000       0.195590
     2344.200000       0.351230
     2345.200000       0.468100
     2347.200000       0.616680
     2349.400000       0.744860
     2350.900000       0.807720
     2353.400000       0.901340
     2356.300000       0.987330
     2357.400000       0.998480
     2358.100000       1.000000
     2359.300000       0.991860
     2360.400000       0.965960
     2361.400000       0.919010
     2363.000000       0.845980
     2365.700000       0.674250
     2367.600000       0.567840
     2369.000000       0.438570
     2370.100000       0.336000
     2371.600000       0.228630
     2373.200000       0.146650
     2375.000000       0.093025
     2376.300000       0.058917
     2379.500000       0.015695
     2396.300000       0.001906
     2400.100000       0.000000
