  16  ,noaa_05_hirs_16.flt
Number of data points:
49
Wavenumber (cm-1)   Filter response
     2199.900000       0.000000
     2210.000000       0.000717
     2219.700000       0.005693
     2227.400000       0.010384
     2231.600000       0.014618
     2235.000000       0.019648
     2238.400000       0.029732
     2240.900000       0.048947
     2243.100000       0.064932
     2244.600000       0.087020
     2246.200000       0.114610
     2247.500000       0.143820
     2249.600000       0.199490
     2252.100000       0.290400
     2255.100000       0.442110
     2257.700000       0.560100
     2259.500000       0.638420
     2260.700000       0.694970
     2262.200000       0.732560
     2263.800000       0.766760
     2265.200000       0.789600
     2266.700000       0.807850
     2268.800000       0.813640
     2271.300000       0.823000
     2273.700000       0.839240
     2276.100000       0.864600
     2277.300000       0.883430
     2279.300000       0.922710
     2281.200000       0.966520
     2282.500000       0.998260
     2283.700000       1.000000
     2284.700000       0.986670
     2285.300000       0.962250
     2286.700000       0.903340
     2287.500000       0.834980
     2289.200000       0.689310
     2291.100000       0.429440
     2293.400000       0.276890
     2294.900000       0.204090
     2296.300000       0.149000
     2297.900000       0.101210
     2300.100000       0.071530
     2301.900000       0.046122
     2304.100000       0.029174
     2307.500000       0.019551
     2311.300000       0.014830
     2319.800000       0.008632
     2330.000000       0.000000
     2399.900000       0.000000
