   9  ,noaa_05_hirs_09.flt
Number of data points:
58
Wavenumber (cm-1)   Filter response
      980.010000       0.000000
      986.150000       0.006604
      991.170000       0.009896
      994.860000       0.012176
      997.590000       0.015338
      999.840000       0.025451
     1002.000000       0.038850
     1003.200000       0.051206
     1004.500000       0.067148
     1005.900000       0.101080
     1007.100000       0.139940
     1008.600000       0.181230
     1009.200000       0.215100
     1009.800000       0.256580
     1011.800000       0.383250
     1013.400000       0.527400
     1014.100000       0.611010
     1016.100000       0.756220
     1017.200000       0.835970
     1017.900000       0.868450
     1018.600000       0.889010
     1019.300000       0.902870
     1020.200000       0.914510
     1021.100000       0.923220
     1022.100000       0.926050
     1023.300000       0.918750
     1024.900000       0.904170
     1026.600000       0.893260
     1028.300000       0.890930
     1029.600000       0.897160
     1030.300000       0.904000
     1031.700000       0.932410
     1033.000000       0.960240
     1034.100000       0.984370
     1034.500000       0.997810
     1035.400000       1.000000
     1036.400000       0.994260
     1036.800000       0.983570
     1037.200000       0.965360
     1037.800000       0.931380
     1038.200000       0.903780
     1039.100000       0.807290
     1039.900000       0.710230
     1040.500000       0.641480
     1041.700000       0.510650
     1042.700000       0.381460
     1044.300000       0.234590
     1046.100000       0.147970
     1046.800000       0.120770
     1048.100000       0.082170
     1049.300000       0.057088
     1051.300000       0.040167
     1053.400000       0.028171
     1056.700000       0.015935
     1060.900000       0.011491
     1068.000000       0.006296
     1071.500000       0.001671
     1076.000000       0.000000
