   3  ,noaa_06_hirs_03.flt
Number of data points:
24
Wavenumber (cm-1)   Filter response
      662.630000       0.000000
      669.990000       0.011306
      672.620000       0.027946
      675.280000       0.060211
      678.180000       0.160190
      681.250000       0.344380
      683.260000       0.516960
      684.870000       0.648990
      686.130000       0.793650
      687.250000       0.896990
      688.650000       0.975550
      689.550000       1.000000
      690.870000       0.995400
      693.060000       0.924980
      694.810000       0.845610
      695.920000       0.747450
      697.290000       0.572860
      698.640000       0.387840
      700.250000       0.205510
      701.240000       0.131310
      702.450000       0.080403
      704.030000       0.041852
      706.760000       0.021011
      716.050000       0.000000
