  19  ,noaa_07_hirs_19.flt
Number of data points:
52
Wavenumber (cm-1)   Filter response
     2499.700000       0.000000
     2506.200000       0.000000
     2526.100000       0.006588
     2553.400000       0.016148
     2566.600000       0.036349
     2573.000000       0.061515
     2577.400000       0.085878
     2582.000000       0.120500
     2584.900000       0.149930
     2590.900000       0.231340
     2593.200000       0.275500
     2598.700000       0.401800
     2603.500000       0.526910
     2608.600000       0.671100
     2614.300000       0.792620
     2618.600000       0.869170
     2624.000000       0.930800
     2628.200000       0.951910
     2632.900000       0.952100
     2636.000000       0.941550
     2644.500000       0.885220
     2652.800000       0.813820
     2655.100000       0.797660
     2660.100000       0.773840
     2663.900000       0.763430
     2667.500000       0.763530
     2671.700000       0.772990
     2673.000000       0.783260
     2680.800000       0.859260
     2684.000000       0.906250
     2686.800000       0.971600
     2688.700000       0.988660
     2690.000000       0.997910
     2691.400000       1.000000
     2693.300000       0.981440
     2695.000000       0.963930
     2696.400000       0.929720
     2698.100000       0.857580
     2699.100000       0.777000
     2703.000000       0.602100
     2705.200000       0.496750
     2708.300000       0.364300
     2710.700000       0.275770
     2711.700000       0.223610
     2713.000000       0.206160
     2718.600000       0.125120
     2722.500000       0.090149
     2724.800000       0.070106
     2729.500000       0.044897
     2736.900000       0.027221
     2754.600000       0.013760
     2800.500000       0.000000
