 2    ,MSG-2 VIS 0.8 data from EUM-MSG-TEN-06-0010 MSG_SEVIRI_Spectral_Response_Characterisation.XLT
Number of data points:
44
Wavenumber (cm-1)   Filter response
    11473.152800       0.001129
    11510.128900       0.001497
    11547.344100       0.001684
    11584.800700       0.002403
    11622.501200       0.003445
    11660.447800       0.005357
    11698.643000       0.009036
    11737.089200       0.016505
    11775.789000       0.032408
    11814.744800       0.067697
    11853.959200       0.145947
    11893.434800       0.291506
    11933.174200       0.500668
    11973.180100       0.703277
    12013.455100       0.826469
    12054.001900       0.873278
    12094.823400       0.887477
    12135.922300       0.896508
    12177.301500       0.907918
    12218.963800       0.917847
    12260.912200       0.925737
    12303.149600       0.933465
    12345.679000       0.941491
    12388.503500       0.950423
    12431.626100       0.962904
    12475.049900       0.976535
    12518.778200       0.991270
    12562.814100       1.000000
    12607.160900       0.995079
    12651.821900       0.988876
    12696.800400       0.990250
    12742.099900       0.974623
    12787.723800       0.827393
    12833.675600       0.498089
    12879.958800       0.221976
    12926.577000       0.090910
    12973.534000       0.040791
    13020.833300       0.022423
    13068.478800       0.014446
    13116.474300       0.009761
    13164.823600       0.006220
    13213.530700       0.003631
    13262.599500       0.002098
    13312.034100       0.001378
