   5  ,noaa_05_hirs_05.flt
Number of data points:
52
Wavenumber (cm-1)   Filter response
      692.060000       0.000000
      694.850000       0.000705
      697.080000       0.006297
      698.600000       0.011461
      699.790000       0.020184
      700.920000       0.030998
      702.390000       0.056892
      703.240000       0.089164
      704.410000       0.150550
      705.220000       0.214700
      705.960000       0.286740
      706.690000       0.356190
      707.190000       0.448230
      707.920000       0.538610
      708.630000       0.629200
      709.270000       0.699790
      709.730000       0.749130
      710.380000       0.806070
      710.940000       0.843530
      711.700000       0.884500
      712.240000       0.912250
      712.870000       0.939770
      713.440000       0.960790
      714.150000       0.979020
      714.910000       0.990080
      715.910000       1.000000
      716.990000       0.996090
      717.670000       0.982250
      718.310000       0.960920
      719.280000       0.929720
      719.940000       0.897310
      720.620000       0.863200
      721.310000       0.821270
      721.940000       0.757570
      722.630000       0.695920
      723.260000       0.632160
      723.820000       0.558310
      724.550000       0.482140
      725.020000       0.425860
      725.740000       0.343120
      727.010000       0.234930
      727.430000       0.192830
      728.000000       0.158420
      728.940000       0.112900
      729.940000       0.077920
      730.690000       0.055265
      731.560000       0.037908
      732.760000       0.029699
      734.340000       0.020791
      736.320000       0.010003
      739.050000       0.001407
      740.050000       0.000000
