 1    ,fy2_04_vissr_01.flt
Number of data points:
55
Wavenumber (cm-1)   Filter response
     2262.443400       0.004200
     2272.727300       0.006700
     2283.105000       0.008300
     2293.578000       0.012800
     2304.147500       0.010900
     2314.814800       0.010600
     2325.581400       0.007700
     2336.448600       0.010800
     2347.417800       0.015100
     2358.490600       0.016900
     2369.668200       0.027400
     2380.952400       0.071400
     2392.344500       0.123700
     2403.846200       0.157700
     2415.458900       0.207200
     2427.184500       0.274500
     2439.024400       0.343900
     2450.980400       0.412500
     2463.054200       0.470600
     2475.247500       0.528000
     2487.562200       0.585700
     2500.000000       0.626200
     2512.562800       0.665200
     2525.252500       0.690100
     2538.071100       0.710700
     2551.020400       0.734800
     2564.102600       0.767200
     2577.319600       0.810800
     2590.673600       0.842300
     2604.166700       0.882800
     2617.801000       0.920500
     2631.578900       0.952400
     2645.502600       0.974800
     2659.574500       0.991100
     2673.796800       0.999000
     2688.172000       1.000000
     2702.702700       0.990300
     2717.391300       0.967500
     2732.240400       0.935200
     2747.252700       0.904600
     2762.430900       0.858700
     2777.777800       0.798200
     2793.296100       0.699900
     2808.988800       0.647700
     2824.858800       0.579800
     2840.909100       0.473800
     2857.142900       0.401300
     2873.563200       0.357300
     2890.173400       0.303400
     2906.976700       0.221700
     2923.976600       0.139800
     2941.176500       0.080700
     2958.579900       0.042900
     2976.190500       0.023300
     2994.012000       0.014100
