  16  ,noaa_08_hirs_16.flt
Number of data points:
67
Wavenumber (cm-1)   Filter response
     2220.000000       0.000000
     2228.900000       0.001053
     2238.300000       0.006229
     2243.600000       0.008480
     2246.300000       0.009943
     2247.900000       0.012971
     2249.600000       0.021773
     2251.100000       0.035822
     2252.300000       0.048829
     2253.200000       0.064771
     2254.900000       0.111670
     2255.500000       0.140500
     2256.100000       0.173890
     2256.800000       0.216240
     2257.200000       0.257830
     2257.900000       0.322390
     2258.600000       0.392530
     2259.500000       0.510980
     2260.200000       0.621240
     2260.700000       0.686330
     2261.200000       0.738960
     2261.700000       0.808420
     2262.600000       0.869360
     2263.300000       0.912800
     2263.800000       0.943880
     2264.300000       0.965930
     2264.800000       0.978860
     2265.400000       0.991580
     2266.200000       0.999660
     2267.300000       1.000000
     2268.200000       0.992810
     2269.000000       0.977250
     2270.600000       0.955610
     2271.500000       0.938390
     2272.600000       0.921210
     2273.200000       0.914230
     2274.100000       0.909210
     2274.800000       0.909570
     2275.300000       0.915310
     2276.100000       0.924090
     2278.200000       0.973350
     2278.800000       0.987900
     2279.300000       0.990100
     2279.700000       0.974880
     2280.000000       0.958130
     2280.400000       0.928980
     2280.800000       0.884100
     2281.600000       0.778620
     2282.200000       0.683810
     2282.800000       0.581960
     2283.500000       0.444980
     2284.100000       0.349820
     2284.400000       0.287710
     2285.100000       0.226250
     2285.900000       0.172850
     2286.300000       0.139180
     2287.500000       0.098114
     2288.200000       0.073755
     2288.900000       0.057457
     2289.600000       0.045792
     2290.500000       0.034648
     2291.500000       0.024146
     2292.600000       0.018944
     2293.900000       0.012767
     2298.000000       0.008177
     2303.100000       0.003722
     2309.900000       0.000000
