   6  ,noaa_05_hirs_06.flt
Number of data points:
47
Wavenumber (cm-1)   Filter response
      703.980000       0.000000
      707.880000       0.006722
      710.510000       0.010932
      712.570000       0.014840
      714.070000       0.025313
      715.070000       0.037714
      716.300000       0.057968
      717.290000       0.076532
      718.050000       0.101950
      719.000000       0.143480
      720.140000       0.204790
      721.170000       0.285110
      722.210000       0.385020
      723.190000       0.474370
      724.630000       0.603220
      725.670000       0.703660
      726.510000       0.774030
      727.440000       0.837060
      728.400000       0.898260
      728.910000       0.930230
      729.260000       0.957110
      729.770000       0.973380
      730.610000       0.993470
      731.380000       0.998360
      732.270000       1.000000
      733.300000       0.981600
      734.130000       0.947770
      735.050000       0.910260
      736.180000       0.865780
      737.140000       0.827380
      737.930000       0.778260
      738.740000       0.726660
      739.440000       0.663230
      740.280000       0.580230
      740.930000       0.490260
      742.110000       0.361500
      743.150000       0.233980
      744.050000       0.167560
      744.700000       0.129910
      745.540000       0.094148
      746.380000       0.067148
      747.040000       0.050766
      748.290000       0.037433
      749.870000       0.021712
      753.350000       0.016216
      758.490000       0.006769
      762.910000       0.000000
