  16  ,noaa_10_hirs_16.flt
Number of data points:
96
Wavenumber (cm-1)   Filter response
     2220.000000       0.000000
     2223.400000       0.001166
     2228.600000       0.002122
     2232.600000       0.002953
     2234.800000       0.002722
     2237.000000       0.003735
     2239.200000       0.005687
     2241.600000       0.006901
     2243.700000       0.007467
     2245.000000       0.009352
     2246.600000       0.019449
     2248.100000       0.029925
     2249.200000       0.046133
     2250.200000       0.061137
     2251.000000       0.081562
     2251.600000       0.101550
     2252.300000       0.123810
     2252.800000       0.147780
     2253.300000       0.174860
     2253.600000       0.200780
     2253.900000       0.225920
     2254.300000       0.262160
     2254.700000       0.290190
     2254.900000       0.322930
     2255.400000       0.358970
     2255.600000       0.402010
     2255.900000       0.441490
     2256.500000       0.504990
     2257.000000       0.584900
     2257.400000       0.623700
     2257.900000       0.673250
     2258.200000       0.727060
     2258.600000       0.776100
     2259.000000       0.816040
     2259.300000       0.845080
     2259.700000       0.873110
     2260.200000       0.905180
     2260.700000       0.929370
     2261.300000       0.954000
     2261.800000       0.972040
     2262.800000       0.988260
     2263.700000       0.994810
     2264.700000       0.996750
     2265.800000       0.982960
     2266.900000       0.963430
     2267.900000       0.946000
     2269.000000       0.931690
     2269.500000       0.919450
     2270.100000       0.909880
     2271.000000       0.907380
     2271.700000       0.910440
     2272.500000       0.921340
     2273.100000       0.934240
     2273.900000       0.956650
     2274.600000       0.980870
     2275.200000       0.994370
     2275.900000       1.000000
     2276.400000       0.996470
     2276.600000       0.984670
     2276.900000       0.972640
     2277.100000       0.954520
     2277.400000       0.932240
     2277.500000       0.906940
     2277.800000       0.869900
     2278.000000       0.834250
     2278.300000       0.791820
     2278.700000       0.721960
     2279.000000       0.675210
     2279.300000       0.622170
     2279.500000       0.579660
     2279.900000       0.537040
     2280.100000       0.472710
     2280.500000       0.395720
     2281.000000       0.315880
     2281.400000       0.281260
     2281.700000       0.245300
     2282.200000       0.207460
     2282.800000       0.177660
     2283.200000       0.152800
     2283.500000       0.130920
     2284.000000       0.107590
     2284.600000       0.090349
     2285.500000       0.067434
     2286.400000       0.048859
     2287.000000       0.039771
     2287.600000       0.035428
     2288.200000       0.029709
     2288.900000       0.024886
     2290.100000       0.017422
     2291.000000       0.012255
     2293.000000       0.011850
     2295.700000       0.009686
     2298.900000       0.007415
     2301.600000       0.003267
     2304.500000       0.000461
     2309.900000       0.000000
