  11  ,noaa_05_hirs_11.flt
Number of data points:
53
Wavenumber (cm-1)   Filter response
     1299.700000       0.000000
     1313.700000       0.010920
     1320.500000       0.017990
     1324.300000       0.020094
     1326.200000       0.024482
     1328.900000       0.035116
     1331.200000       0.051449
     1333.300000       0.074532
     1335.400000       0.111190
     1336.700000       0.147810
     1338.200000       0.195210
     1339.300000       0.245570
     1340.700000       0.314610
     1342.400000       0.413310
     1343.900000       0.501770
     1345.700000       0.595620
     1347.100000       0.661740
     1348.800000       0.736740
     1350.800000       0.795230
     1352.900000       0.857100
     1354.400000       0.900500
     1356.200000       0.938630
     1357.500000       0.964460
     1358.800000       0.984920
     1360.700000       0.994640
     1361.900000       1.000000
     1363.900000       0.999340
     1365.700000       0.991870
     1367.400000       0.970960
     1369.800000       0.939870
     1371.600000       0.909590
     1373.300000       0.872820
     1374.800000       0.828360
     1376.700000       0.772070
     1378.100000       0.722400
     1379.300000       0.642820
     1381.400000       0.535750
     1383.000000       0.451210
     1384.700000       0.364290
     1386.600000       0.293920
     1388.100000       0.236160
     1389.500000       0.179850
     1391.300000       0.133690
     1393.000000       0.102210
     1394.400000       0.074307
     1396.200000       0.049139
     1397.600000       0.034550
     1400.300000       0.024338
     1403.100000       0.014507
     1406.500000       0.012356
     1417.000000       0.005325
     1424.000000       0.000000
     1429.900000       0.000000
