   9  ,noaa_09_hirs_09.flt
Number of data points:
51
Wavenumber (cm-1)   Filter response
      982.320000       0.000000
      989.830000       0.008800
      995.570000       0.013117
      999.830000       0.017435
     1003.400000       0.025917
     1005.800000       0.035165
     1007.300000       0.058144
     1008.900000       0.091318
     1010.300000       0.124650
     1011.400000       0.162150
     1013.000000       0.237820
     1014.600000       0.334490
     1015.700000       0.428180
     1016.800000       0.524080
     1018.400000       0.669070
     1019.600000       0.792680
     1021.200000       0.890190
     1022.400000       0.931440
     1023.300000       0.949310
     1024.300000       0.963340
     1025.300000       0.968520
     1026.300000       0.964480
     1027.700000       0.951230
     1029.700000       0.933930
     1031.600000       0.921450
     1033.100000       0.921870
     1034.200000       0.927360
     1035.300000       0.943080
     1036.300000       0.966560
     1037.500000       0.991280
     1038.400000       1.000000
     1039.100000       0.999600
     1039.700000       0.991050
     1040.200000       0.972380
     1040.800000       0.942580
     1041.400000       0.877220
     1043.000000       0.736030
     1044.200000       0.595990
     1045.400000       0.445180
     1046.900000       0.299320
     1048.100000       0.198770
     1048.900000       0.152230
     1049.900000       0.112560
     1051.000000       0.086128
     1052.200000       0.057745
     1053.800000       0.038170
     1056.800000       0.016598
     1061.600000       0.009359
     1068.300000       0.006015
     1072.300000       0.001813
     1076.000000       0.000000
