3, INSAT-3DR Sounder  LWIR-3
Number of data points:
37
Wavenumber (cm-1)   Filter response
      697.350100       0.000000
      698.080300       0.030000
      698.812000       0.050000
      699.545300       0.077700
      700.280100       0.119100
      701.016500       0.168900
      701.754400       0.238000
      702.493900       0.323100
      703.234900       0.397800
      703.977500       0.499400
      704.721600       0.592700
      705.467400       0.700500
      706.214700       0.783900
      706.963600       0.842500
      707.714100       0.902800
      708.466200       0.937700
      709.219900       0.952700
      709.975200       0.967600
      710.732100       0.988200
      711.490600       0.981700
      712.250700       0.995800
      713.012500       1.000000
      713.775900       0.979400
      714.540900       0.955300
      715.307600       0.894300
      716.075900       0.794600
      716.845900       0.687700
      717.617500       0.608200
      718.390800       0.498000
      719.165800       0.389100
      719.942400       0.290600
      720.720700       0.218500
      721.500700       0.140900
      722.282400       0.099000
      723.065800       0.078300
      723.850900       0.040000
      724.637700       0.000000
