  15  ,noaa_05_hirs_15.flt
Number of data points:
51
Wavenumber (cm-1)   Filter response
     2201.900000       0.000000
     2205.900000       0.009586
     2208.900000       0.015565
     2212.400000       0.019928
     2213.800000       0.022504
     2214.800000       0.029876
     2216.300000       0.042068
     2217.600000       0.056592
     2218.800000       0.085169
     2219.800000       0.109810
     2220.600000       0.137830
     2221.800000       0.195900
     2222.800000       0.273070
     2225.000000       0.417790
     2225.900000       0.496440
     2227.300000       0.606940
     2228.100000       0.674030
     2229.100000       0.755360
     2230.400000       0.831240
     2231.400000       0.891310
     2232.400000       0.934700
     2233.300000       0.968930
     2234.300000       0.989880
     2235.200000       0.995700
     2236.300000       0.993400
     2237.900000       0.978710
     2239.200000       0.951240
     2240.200000       0.935980
     2241.400000       0.929960
     2242.500000       0.937650
     2243.600000       0.958150
     2244.600000       0.979790
     2245.500000       0.989640
     2246.400000       1.000000
     2247.500000       0.976310
     2248.300000       0.943330
     2248.900000       0.899690
     2249.600000       0.834670
     2250.400000       0.745830
     2251.000000       0.624150
     2251.900000       0.491510
     2253.100000       0.310320
     2254.000000       0.220680
     2254.800000       0.164940
     2255.500000       0.127010
     2256.100000       0.087714
     2256.900000       0.070416
     2257.800000       0.047320
     2259.500000       0.026001
     2262.200000       0.014850
     2266.100000       0.000000
