  13  ,noaa_08_hirs_13.flt
Number of data points:
53
Wavenumber (cm-1)   Filter response
     2148.000000       0.000000
     2157.100000       0.004462
     2162.500000       0.009524
     2165.400000       0.011090
     2166.700000       0.016749
     2168.500000       0.022099
     2170.000000       0.034553
     2170.900000       0.053382
     2171.700000       0.078411
     2172.600000       0.108590
     2173.600000       0.149140
     2174.800000       0.226610
     2175.800000       0.327190
     2176.900000       0.475790
     2178.000000       0.601470
     2179.200000       0.733560
     2179.900000       0.781240
     2180.700000       0.808160
     2181.300000       0.831890
     2182.000000       0.847630
     2183.300000       0.867830
     2184.500000       0.889200
     2185.500000       0.914370
     2187.300000       0.961910
     2188.300000       0.981820
     2189.000000       0.990640
     2190.000000       0.997110
     2190.900000       1.000000
     2191.400000       0.991710
     2192.000000       0.984520
     2193.100000       0.962760
     2193.900000       0.940670
     2194.300000       0.915780
     2194.900000       0.903790
     2195.700000       0.856760
     2196.100000       0.805160
     2196.500000       0.772850
     2196.900000       0.739410
     2197.600000       0.659980
     2198.300000       0.587150
     2198.700000       0.507780
     2199.500000       0.411250
     2200.400000       0.306650
     2201.400000       0.218620
     2202.400000       0.141480
     2203.100000       0.115370
     2204.900000       0.065009
     2206.200000       0.038813
     2208.500000       0.025832
     2211.000000       0.014035
     2215.200000       0.009730
     2222.600000       0.002987
     2228.000000       0.000000
