15, INSAT-3DR Sounder  SWIR-3
Number of data points:
36
Wavenumber (cm-1)   Filter response
     2200.704200       0.000000
     2202.643200       0.010000
     2204.585500       0.025000
     2206.531300       0.050000
     2208.480600       0.081200
     2210.433200       0.124500
     2212.389400       0.180200
     2214.349000       0.249500
     2216.312100       0.324500
     2218.278600       0.412900
     2220.248700       0.491700
     2222.222200       0.596700
     2224.199300       0.693500
     2226.179900       0.795300
     2228.164000       0.878700
     2230.151700       0.947700
     2232.142900       0.984900
     2234.137600       1.000000
     2236.136000       0.991000
     2238.137900       0.947100
     2240.143400       0.890300
     2242.152500       0.813100
     2244.165200       0.724500
     2246.181500       0.621700
     2248.201400       0.519200
     2250.225000       0.426600
     2252.252300       0.332500
     2254.283100       0.254200
     2256.317700       0.184100
     2258.355900       0.128300
     2260.397800       0.084900
     2262.443400       0.059300
     2264.492800       0.041800
     2266.545800       0.025000
     2268.602500       0.010000
     2270.663000       0.000000
