  14  ,noaa_10_hirs_14.flt
Number of data points:
73
Wavenumber (cm-1)   Filter response
     2155.100000       0.000000
     2160.400000       0.002286
     2163.100000       0.004921
     2165.600000       0.005213
     2168.500000       0.006530
     2171.300000       0.007729
     2174.100000       0.009616
     2176.700000       0.012300
     2179.700000       0.014291
     2181.800000       0.014537
     2184.000000       0.017195
     2185.700000       0.031273
     2187.100000       0.045238
     2188.100000       0.065750
     2189.000000       0.091342
     2189.900000       0.114390
     2190.900000       0.163090
     2191.800000       0.210210
     2192.500000       0.252610
     2193.300000       0.305720
     2194.100000       0.370840
     2194.800000       0.429470
     2195.700000       0.498050
     2196.400000       0.552680
     2197.200000       0.611530
     2198.200000       0.675450
     2198.900000       0.721550
     2199.600000       0.765600
     2200.600000       0.818260
     2201.500000       0.864260
     2202.300000       0.896710
     2203.000000       0.921300
     2203.600000       0.937770
     2204.600000       0.950050
     2205.500000       0.953820
     2206.500000       0.945190
     2207.700000       0.927070
     2208.700000       0.903940
     2209.700000       0.896220
     2210.600000       0.896760
     2211.400000       0.906690
     2211.900000       0.927400
     2213.200000       0.962180
     2213.800000       0.984740
     2214.600000       1.000000
     2215.000000       0.993720
     2215.300000       0.976550
     2215.700000       0.954050
     2216.000000       0.919500
     2216.400000       0.877580
     2216.800000       0.826420
     2217.000000       0.771990
     2217.400000       0.709540
     2217.800000       0.656930
     2218.200000       0.593060
     2218.500000       0.519360
     2218.700000       0.459870
     2219.200000       0.402550
     2219.700000       0.330870
     2220.100000       0.272130
     2220.700000       0.213190
     2221.300000       0.161200
     2222.000000       0.119550
     2222.600000       0.085319
     2223.500000       0.055219
     2224.400000       0.038128
     2225.100000       0.032680
     2226.400000       0.019909
     2228.400000       0.014822
     2230.100000       0.008739
     2232.000000       0.008581
     2233.800000       0.003343
     2235.100000       0.000000
