  10  ,noaa_16_hirs_10.flt
Number of data points:
72
Wavenumber (cm-1)   Filter response
      788.000000       0.000000
      788.690000       0.014324
      788.850000       0.019546
      789.220000       0.023496
      789.640000       0.026148
      790.050000       0.030118
      790.580000       0.034114
      791.000000       0.039426
      791.360000       0.044745
      791.730000       0.054028
      792.100000       0.064626
      792.360000       0.076544
      792.620000       0.089797
      792.990000       0.104410
      793.200000       0.122980
      793.460000       0.141580
      793.670000       0.158860
      793.930000       0.178830
      794.040000       0.205370
      794.570000       0.268060
      795.040000       0.341550
      795.620000       0.440700
      796.520000       0.576790
      796.880000       0.626910
      797.200000       0.669010
      797.520000       0.701820
      797.830000       0.729320
      798.200000       0.755660
      798.670000       0.786360
      799.140000       0.809060
      799.560000       0.824890
      799.930000       0.837910
      800.300000       0.856370
      800.610000       0.877420
      801.080000       0.901640
      801.450000       0.920220
      802.080000       0.944980
      802.710000       0.967080
      803.180000       0.986080
      803.500000       0.995140
      803.760000       1.000000
      804.070000       0.998560
      804.280000       0.995320
      804.650000       0.981760
      805.170000       0.963180
      805.530000       0.942560
      805.800000       0.931140
      806.220000       0.918870
      806.630000       0.903800
      807.210000       0.883680
      807.940000       0.850120
      808.360000       0.823740
      808.770000       0.790350
      809.400000       0.726800
      810.180000       0.624140
      810.700000       0.530100
      811.170000       0.469280
      812.000000       0.324250
      812.780000       0.202230
      813.150000       0.162880
      813.510000       0.131910
      813.930000       0.107980
      814.350000       0.088237
      814.720000       0.072737
      815.190000       0.057211
      815.810000       0.047378
      816.490000       0.040358
      817.120000       0.033262
      817.490000       0.024610
      817.800000       0.017375
      818.120000       0.015930
      819.000000       0.000000
