  12  ,noaa_05_hirs_12.flt
Number of data points:
78
Wavenumber (cm-1)   Filter response
     1384.900000       0.000000
     1405.700000       0.006916
     1416.700000       0.008299
     1423.800000       0.011683
     1426.100000       0.017127
     1429.200000       0.033086
     1431.400000       0.052425
     1433.200000       0.079700
     1435.100000       0.124920
     1436.600000       0.161540
     1437.900000       0.237280
     1439.300000       0.326580
     1440.800000       0.447200
     1442.700000       0.584150
     1444.800000       0.753510
     1445.900000       0.842450
     1447.900000       0.926500
     1449.300000       0.961920
     1450.300000       0.978140
     1451.600000       0.990030
     1453.100000       0.998140
     1455.300000       1.000000
     1457.200000       0.989950
     1458.200000       0.977370
     1460.600000       0.962440
     1463.700000       0.941790
     1465.600000       0.923710
     1467.300000       0.909490
     1469.100000       0.907940
     1470.700000       0.909960
     1472.600000       0.916080
     1474.200000       0.923350
     1475.500000       0.933070
     1478.600000       0.944550
     1480.600000       0.944210
     1482.600000       0.935670
     1484.100000       0.925190
     1485.900000       0.904190
     1487.700000       0.880650
     1489.300000       0.848510
     1491.900000       0.792860
     1495.100000       0.722170
     1497.700000       0.672410
     1499.800000       0.637600
     1501.000000       0.620160
     1503.400000       0.604180
     1505.600000       0.600010
     1507.000000       0.598630
     1508.100000       0.605830
     1510.000000       0.614740
     1512.100000       0.623800
     1513.800000       0.625780
     1514.900000       0.631170
     1517.300000       0.621400
     1519.200000       0.615130
     1520.700000       0.610020
     1522.000000       0.598870
     1523.200000       0.595530
     1524.200000       0.594570
     1525.700000       0.597970
     1526.500000       0.601250
     1528.000000       0.599870
     1529.200000       0.589680
     1530.100000       0.577830
     1531.100000       0.553400
     1532.200000       0.519840
     1533.900000       0.411000
     1535.300000       0.304870
     1537.200000       0.192590
     1539.800000       0.099981
     1540.800000       0.067195
     1542.400000       0.042591
     1544.500000       0.025607
     1546.800000       0.015669
     1551.000000       0.008244
     1558.100000       0.003762
     1564.700000       0.000000
     1574.900000       0.000000
